Wavelength	PENFOUL00484.asd
325	 0,396041996399618 
326	 0,476598506118557 
327	 0,533654769485803 
328	 0,509793370978086 
329	 0,5382171761431 
330	 0,557275586503277 
331	 0,522834097490845 
332	 0,499218722325649 
333	 0,472071314401467 
334	 0,44825337947228 
335	 0,384519587405582 
336	 0,306349929285423 
337	 0,401411108736852 
338	 0,489403779292994 
339	 0,401121910165741 
340	 0,375239691213149 
341	 0,387666613577325 
342	 0,331471963417818 
343	 0,278103548970874 
344	 0,261550977499614 
345	 0,337068258955985 
346	 0,371845565306844 
347	 0,259872732453224 
348	 0,245711863590007 
349	 0,295571229558364 
350	 0,240907189689232 
351	 0,201124896843134 
352	 0,212114869053465 
353	 0,199796897103346 
354	 0,201147948704543 
355	 0,256115926651664 
356	 0,267978665606201 
357	 0,241039327701436 
358	 0,256181488212551 
359	 0,26193441061483 
360	 0,242235475028575 
361	 0,246514263236056 
362	 0,259238990126597 
363	 0,249215104749257 
364	 0,24262705167469 
365	 0,244866978556103 
366	 0,257233788749255 
367	 0,261752810885536 
368	 0,24992339832521 
369	 0,242722194760257 
370	 0,24306285347164 
371	 0,252736844754357 
372	 0,240624606289674 
373	 0,212658017013543 
374	 0,239529103086377 
375	 0,26610534887576 
376	 0,257336913642597 
377	 0,24533743967924 
378	 0,244030813160179 
379	 0,271403786077678 
380	 0,275148325792007 
381	 0,247156857649604 
382	 0,248381713075774 
383	 0,260762852354839 
384	 0,26505306656647 
385	 0,256299515714766 
386	 0,241973298507155 
387	 0,244374235926999 
388	 0,24483102551006 
389	 0,238077527691095 
390	 0,236789611914773 
391	 0,238819720710527 
392	 0,240528769672178 
393	 0,244547715205829 
394	 0,247979223342143 
395	 0,241065669816367 
396	 0,234687610113536 
397	 0,234382605564763 
398	 0,233964003956599 
399	 0,234050953938022 
400	 0,236846815568492 
401	 0,234527629654098 
402	 0,228636798852999 
403	 0,232735988134408 
404	 0,237993207555454 
405	 0,238296844665936 
406	 0,234045858963201 
407	 0,229444679081749 
408	 0,233631070723787 
409	 0,234562533781237 
410	 0,230385295305672 
411	 0,229370105546879 
412	 0,230748136333415 
413	 0,2330451147441 
414	 0,228465857051412 
415	 0,220482148936591 
416	 0,221707042334845 
417	 0,224003921828825 
418	 0,225232227957605 
419	 0,234822758912335 
420	 0,241203463959095 
421	 0,229824156455669 
422	 0,224441199769487 
423	 0,227327199968942 
424	 0,224816327430982 
425	 0,224329197196698 
426	 0,229290338952459 
427	 0,230260796498674 
428	 0,227715830452841 
429	 0,224441417677108 
430	 0,223657495465466 
431	 0,226184519338324 
432	 0,230383616474703 
433	 0,232935555473435 
434	 0,231246114109979 
435	 0,227301906592124 
436	 0,224376056138523 
437	 0,229725386938871 
438	 0,23371321021905 
439	 0,232656980184943 
440	 0,230706404266755 
441	 0,229122275328472 
442	 0,228992086731424 
443	 0,229162340490106 
444	 0,229565747116049 
445	 0,23136235172168 
446	 0,231469219386785 
447	 0,2286505892301 
448	 0,22955416655257 
449	 0,232432244896609 
450	 0,232131694360521 
451	 0,233151080190954 
452	 0,235980376600633 
453	 0,236771854946934 
454	 0,236692663277305 
455	 0,236837168554519 
456	 0,234221695800411 
457	 0,230254106309652 
458	 0,229816070827891 
459	 0,230295781340938 
460	 0,230749345907694 
461	 0,232246943427878 
462	 0,234488815327401 
463	 0,237037355253376 
464	 0,235795991255234 
465	 0,232182976047786 
466	 0,234798908152779 
467	 0,238211212318421 
468	 0,238737781509687 
469	 0,237426291964427 
470	 0,235995384713551 
471	 0,23769519055157 
472	 0,23778437427701 
473	 0,23582131264978 
474	 0,237703468528291 
475	 0,239035520282705 
476	 0,235526147616632 
477	 0,23537729115528 
478	 0,237343838928906 
479	 0,232609206345979 
480	 0,230933721209926 
481	 0,235636780094859 
482	 0,235845069632622 
483	 0,234206073379516 
484	 0,236362094870408 
485	 0,237254186485958 
486	 0,236311182368378 
487	 0,236349455625451 
488	 0,237490334571187 
489	 0,239434390803658 
490	 0,238210957283845 
491	 0,235185071553457 
492	 0,23473286073195 
493	 0,234981994996827 
494	 0,235164541773255 
495	 0,234208033811107 
496	 0,233590236954744 
497	 0,235005070521722 
498	 0,234990556714521 
499	 0,233827109516926 
500	 0,234993779048448 
501	 0,235868050204341 
502	 0,2351982172148 
503	 0,235670705275124 
504	 0,236438001373845 
505	 0,235233863677683 
506	 0,236114499029987 
507	 0,239243139388241 
508	 0,239900674271911 
509	 0,239598984750262 
510	 0,239901416439299 
511	 0,240716118073942 
512	 0,241499299549799 
513	 0,240575143857336 
514	 0,24079948322728 
515	 0,243011775034129 
516	 0,244004483750059 
517	 0,243940751182453 
518	 0,243497670559641 
519	 0,243783776965484 
520	 0,244852967792612 
521	 0,245844632171209 
522	 0,245713397709859 
523	 0,243972028199385 
524	 0,243721060152099 
525	 0,244597910199385 
526	 0,244625756559929 
527	 0,244627752661059 
528	 0,244803561175768 
529	 0,245030137695483 
530	 0,244952534839222 
531	 0,244200677204728 
532	 0,24439555283404 
533	 0,245348001751721 
534	 0,245281157169109 
535	 0,24493290378871 
536	 0,244780553245373 
537	 0,245025572210095 
538	 0,245300595574026 
539	 0,244809605619601 
540	 0,244880629656636 
541	 0,245628304878508 
542	 0,245479490968181 
543	 0,245368969095734 
544	 0,246226802956686 
545	 0,246703865058446 
546	 0,246759772441772 
547	 0,247130791534673 
548	 0,247274201899029 
549	 0,247001810652528 
550	 0,246850526695252 
551	 0,24695236725265 
552	 0,247426494354609 
553	 0,24754642384612 
554	 0,247222763520963 
555	 0,246964686409302 
556	 0,247198074410851 
557	 0,24813478759695 
558	 0,248019075199432 
559	 0,246989555788476 
560	 0,246097238459445 
561	 0,245814423916599 
562	 0,246240181344206 
563	 0,246390337216572 
564	 0,245978384272884 
565	 0,244764273760722 
566	 0,244605077333673 
567	 0,245701316123615 
568	 0,246988255989637 
569	 0,24756995478928 
570	 0,247009239778141 
571	 0,247515540533696 
572	 0,249153631677253 
573	 0,251431302595932 
574	 0,252624711050941 
575	 0,252596963466856 
576	 0,254426508719938 
577	 0,257091465155511 
578	 0,259191187079036 
579	 0,260844245019763 
580	 0,26197486501711 
581	 0,262290060184129 
582	 0,263112072355486 
583	 0,265059334369664 
584	 0,266431581385661 
585	 0,26710975610698 
586	 0,267258831189009 
587	 0,267972048876284 
588	 0,269328267662666 
589	 0,269858698019823 
590	 0,270362503405583 
591	 0,271568800513508 
592	 0,271938939461541 
593	 0,271713849522839 
594	 0,272434352474299 
595	 0,272786290007043 
596	 0,272403508010608 
597	 0,273192855023214 
598	 0,274051260440941 
599	 0,273035183597997 
600	 0,27252503970055 
601	 0,272786384722737 
602	 0,27207132389666 
603	 0,271304489289153 
604	 0,271179123568507 
605	 0,270633037864243 
606	 0,269752937056614 
607	 0,269219347886308 
608	 0,268427507607708 
609	 0,26742173086674 
610	 0,267793413017066 
611	 0,268158403271259 
612	 0,2666919452619 
613	 0,265461012879563 
614	 0,264832963621063 
615	 0,264065228430666 
616	 0,263887203816994 
617	 0,26455838654083 
618	 0,263977054013055 
619	 0,263010604771063 
620	 0,26406647710791 
621	 0,26456995794064 
622	 0,263819847888222 
623	 0,262813341404839 
624	 0,262060747868472 
625	 0,262043101141555 
626	 0,263234135272495 
627	 0,264800573738525 
628	 0,264062877499359 
629	 0,263612737898591 
630	 0,264685826964156 
631	 0,265749352841248 
632	 0,266520901553331 
633	 0,266852894869048 
634	 0,26716272466515 
635	 0,267815456332311 
636	 0,269669652265064 
637	 0,271432030119368 
638	 0,272047272660161 
639	 0,272979543299875 
640	 0,274087031486648 
641	 0,274186304358782 
642	 0,274948694067037 
643	 0,276715105051538 
644	 0,277172381855753 
645	 0,277050864008122 
646	 0,277570532412442 
647	 0,278109170067565 
648	 0,27832632647623 
649	 0,277574434573649 
650	 0,276733384720885 
651	 0,276315444075885 
652	 0,275147098622214 
653	 0,273530735468177 
654	 0,272352214392179 
655	 0,271605924987835 
656	 0,270992181083186 
657	 0,26896280875629 
658	 0,266795831571891 
659	 0,265846066421996 
660	 0,264035054585501 
661	 0,261403851200383 
662	 0,25930570195948 
663	 0,257558419348918 
664	 0,256090136942123 
665	 0,254881125055181 
666	 0,253586755482805 
667	 0,25167308126515 
668	 0,250220351964214 
669	 0,249462250457944 
670	 0,248878189376079 
671	 0,24857225236152 
672	 0,248569284003403 
673	 0,248136875126818 
674	 0,247392172064997 
675	 0,246891863111449 
676	 0,246649752393969 
677	 0,246650069018793 
678	 0,24658190181422 
679	 0,246598801096906 
680	 0,246909966507225 
681	 0,247082753091171 
682	 0,247365427750943 
683	 0,248887690984437 
684	 0,250389631647688 
685	 0,251264363241094 
686	 0,253024363470454 
687	 0,255554157221948 
688	 0,258249671555242 
689	 0,261599779192074 
690	 0,265772655846286 
691	 0,270747494697546 
692	 0,276457636419747 
693	 0,282847695429034 
694	 0,289998708564527 
695	 0,297776758118201 
696	 0,305910629522228 
697	 0,31437589299681 
698	 0,323270871408099 
699	 0,333422898200727 
700	 0,344055601958945 
701	 0,354098980854721 
702	 0,364329804333517 
703	 0,37453854690734 
704	 0,383565800734211 
705	 0,392343037091262 
706	 0,401397006790975 
707	 0,409780936448992 
708	 0,417515453560015 
709	 0,424868606047061 
710	 0,432069607479328 
711	 0,439041841340248 
712	 0,44507843707132 
713	 0,450644468807027 
714	 0,456145997091291 
715	 0,460855963767733 
716	 0,46494819142861 
717	 0,469198522582003 
718	 0,473197969293136 
719	 0,476779030312242 
720	 0,479999357212474 
721	 0,482943507325837 
722	 0,485721120239374 
723	 0,488155111480753 
724	 0,490314321462109 
725	 0,492528010039985 
726	 0,494622905462944 
727	 0,496523044456756 
728	 0,498512977618653 
729	 0,500346051056411 
730	 0,501534662927566 
731	 0,502487975718272 
732	 0,503455404863751 
733	 0,504856783013287 
734	 0,506253785984041 
735	 0,507231975224443 
736	 0,507751085710939 
737	 0,508129251124343 
738	 0,509157308749709 
739	 0,510194984910535 
740	 0,510976192563236 
741	 0,511573770288978 
742	 0,511819619933805 
743	 0,511544014245631 
744	 0,511678385290406 
745	 0,51237032079957 
746	 0,513419152530314 
747	 0,513934044170196 
748	 0,513589742496855 
749	 0,513969651861017 
750	 0,514695736579948 
751	 0,514886695875823 
752	 0,515143862267111 
753	 0,515485409949081 
754	 0,515379203422424 
755	 0,515289376266219 
756	 0,515548671762823 
757	 0,515848387322843 
758	 0,516136030486436 
759	 0,516425948573981 
760	 0,516572475590332 
761	 0,516585608943973 
762	 0,51677727550198 
763	 0,516911882908812 
764	 0,516787924921204 
765	 0,517025114437894 
766	 0,517521963974962 
767	 0,517690470813363 
768	 0,517944397505962 
769	 0,518340317300676 
770	 0,518270121421769 
771	 0,518146020004424 
772	 0,518492421536303 
773	 0,518456625193559 
774	 0,518111666046238 
775	 0,518243806939375 
776	 0,518589043562419 
777	 0,518943682038841 
778	 0,518886531603904 
779	 0,518666502371711 
780	 0,518715868227438 
781	 0,518938089102868 
782	 0,519212421054624 
783	 0,519144615362457 
784	 0,519255415601029 
785	 0,519805429354709 
786	 0,519907986060843 
787	 0,519734496501615 
788	 0,519820165867788 
789	 0,519844739460175 
790	 0,519820250256474 
791	 0,520174587550558 
792	 0,520430007959152 
793	 0,520228681377155 
794	 0,52007085189349 
795	 0,520133225360492 
796	 0,520640078316711 
797	 0,52083251112392 
798	 0,520592306908888 
799	 0,520810814221247 
800	 0,520917289041251 
801	 0,520413546928729 
802	 0,520586255032043 
803	 0,521254738462404 
804	 0,521361275967036 
805	 0,521290575134522 
806	 0,521252719105575 
807	 0,521703996300785 
808	 0,522197758165198 
809	 0,522236287234593 
810	 0,522259981298894 
811	 0,522359740219895 
812	 0,522557598829203 
813	 0,522555910851003 
814	 0,522318789213415 
815	 0,522496160530341 
816	 0,522676669226276 
817	 0,522331983002483 
818	 0,522369616088501 
819	 0,522860847992195 
820	 0,523403288369036 
821	 0,523818351083849 
822	 0,524001751531293 
823	 0,524098939025298 
824	 0,52409179374572 
825	 0,523946048129619 
826	 0,524464411378716 
827	 0,525367210772114 
828	 0,525149638091898 
829	 0,524881216553377 
830	 0,525053368117256 
831	 0,524959902799493 
832	 0,524787050484809 
833	 0,524876855649261 
834	 0,524899551700535 
835	 0,524881818584451 
836	 0,525213950108341 
837	 0,52534694686904 
838	 0,525106474488083 
839	 0,525528178982702 
840	 0,526142017448189 
841	 0,526135821268839 
842	 0,526237752565594 
843	 0,526402851705925 
844	 0,525826768128882 
845	 0,525474258567865 
846	 0,52585326332336 
847	 0,526468284166526 
848	 0,526859696843234 
849	 0,52649429638964 
850	 0,526360954866157 
851	 0,526546357516712 
852	 0,526472595557754 
853	 0,526095972711324 
854	 0,525528137213707 
855	 0,52566722726916 
856	 0,526200323813654 
857	 0,52655415056514 
858	 0,526762523803255 
859	 0,526776416874445 
860	 0,526414201100341 
861	 0,526437006136357 
862	 0,527144887174387 
863	 0,527646471670984 
864	 0,527817946909317 
865	 0,527646658621225 
866	 0,52749743373189 
867	 0,527534395774213 
868	 0,527952439302518 
869	 0,528151800341639 
870	 0,527906625460513 
871	 0,527828906910768 
872	 0,527811375661645 
873	 0,527673723161574 
874	 0,528084990971637 
875	 0,528910741136683 
876	 0,529480198883934 
877	 0,529309992491023 
878	 0,528487131680146 
879	 0,528840440720462 
880	 0,5295685092476 
881	 0,529644517144192 
882	 0,529343029240499 
883	 0,528969236087383 
884	 0,529219141751496 
885	 0,529341175916927 
886	 0,529185661919878 
887	 0,529439438145688 
888	 0,52988719792426 
889	 0,530269955689985 
890	 0,530459323690579 
891	 0,530343527004358 
892	 0,529701578266051 
893	 0,529523257124182 
894	 0,529937627247082 
895	 0,529787577199521 
896	 0,529865033951011 
897	 0,530705769353309 
898	 0,531049732553218 
899	 0,530944711028608 
900	 0,530820140654847 
901	 0,53107937959778 
902	 0,531600478791268 
903	 0,531407943672021 
904	 0,531108748831613 
905	 0,531100134615508 
906	 0,531245485800133 
907	 0,531436166848903 
908	 0,531537164354142 
909	 0,531678701634429 
910	 0,53188698982957 
911	 0,532223576434768 
912	 0,532091710227917 
913	 0,531495177611712 
914	 0,532301288927306 
915	 0,533192440732742 
916	 0,532596308568992 
917	 0,531992197029944 
918	 0,531820660796578 
919	 0,532511584446976 
920	 0,532380918292044 
921	 0,531341789700191 
922	 0,532051199823891 
923	 0,533206949764098 
924	 0,533574113214528 
925	 0,533255233858577 
926	 0,532395706444632 
927	 0,531243425296401 
928	 0,530427037478795 
929	 0,530229300903918 
930	 0,530777148570009 
931	 0,531393082831595 
932	 0,531600351792645 
933	 0,531446630380269 
934	 0,530764222099184 
935	 0,529409329969936 
936	 0,529228098216119 
937	 0,529978175464332 
938	 0,529608306629388 
939	 0,529879211177841 
940	 0,530972205048733 
941	 0,530417917177651 
942	 0,529604749152308 
943	 0,529801103499274 
944	 0,529574701529422 
945	 0,528898553600016 
946	 0,528097027905654 
947	 0,528273539517673 
948	 0,529064787903016 
949	 0,527944713844508 
950	 0,526494948096707 
951	 0,525634948584505 
952	 0,524824052591057 
953	 0,524104394395002 
954	 0,523588275954629 
955	 0,523922621837593 
956	 0,524270124318219 
957	 0,521932601481496 
958	 0,52138152548899 
959	 0,523416950720781 
960	 0,524315214791465 
961	 0,522989415464549 
962	 0,519453098826931 
963	 0,520112812710432 
964	 0,522715010868516 
965	 0,522438245112703 
966	 0,521649670816928 
967	 0,521146989828798 
968	 0,521901274228008 
969	 0,521632637692286 
970	 0,519729715028806 
971	 0,51840320502086 
972	 0,518663863666574 
973	 0,521007228430021 
974	 0,522521693772024 
975	 0,522489067829826 
976	 0,520682197902757 
977	 0,519893174701947 
978	 0,520654361300826 
979	 0,521410979193068 
980	 0,523055976260197 
981	 0,525391263311394 
982	 0,525114035614642 
983	 0,52430036059416 
984	 0,525033459412705 
985	 0,522408558983998 
986	 0,51929186822318 
987	 0,522824419131237 
988	 0,524304435933435 
989	 0,522588065156171 
990	 0,523147163623872 
991	 0,524615024182467 
992	 0,526112988098986 
993	 0,526748888549232 
994	 0,527376476927241 
995	 0,528813273717671 
996	 0,528700277698818 
997	 0,527860681194614 
998	 0,528700684440515 
999	 0,528783303217807 
1000	 0,528365162341024 
1001	 0,531106075678862 
1002	 0,531960355950747 
1003	 0,529595705680124 
1004	 0,532272318765933 
1005	 0,535361497579901 
1006	 0,533977323799536 
1007	 0,531485071641343 
1008	 0,530270762515242 
1009	 0,533314656385515 
1010	 0,53622165877483 
1011	 0,537269534689745 
1012	 0,535391036904244 
1013	 0,533707232650923 
1014	 0,533899574692957 
1015	 0,536021981034035 
1016	 0,538246681428349 
1017	 0,538885302294649 
1018	 0,537221426173579 
1019	 0,536206822544789 
1020	 0,540081724036406 
1021	 0,54018555550141 
1022	 0,537073752610767 
1023	 0,538472987918193 
1024	 0,539667920011433 
1025	 0,539976443110315 
1026	 0,543477210933528 
1027	 0,545550423280617 
1028	 0,54400333231446 
1029	 0,546192626141979 
1030	 0,547809901375159 
1031	 0,543575201095472 
1032	 0,54363975901956 
1033	 0,546930533224548 
1034	 0,547177475690744 
1035	 0,547787646645383 
1036	 0,548152624374249 
1037	 0,542681769642198 
1038	 0,539977657941477 
1039	 0,543771003109831 
1040	 0,551241010109523 
1041	 0,553238320894411 
1042	 0,544455727234818 
1043	 0,54515110059442 
1044	 0,55108987636092 
1045	 0,552432323319817 
1046	 0,546757642451517 
1047	 0,538571970474628 
1048	 0,540032568403538 
1049	 0,548426221715583 
1050	 0,559264215335199 
1051	 0,55744140749245 
1052	 0,554850281594717 
1053	 0,556542191822581 
1054	 0,553851820614542 
1055	 0,550647077422483 
1056	 0,550830055597695 
1057	 0,553534530535047 
1058	 0,555527226697643 
1059	 0,552979225789287 
1060	 0,550508968959153 
1061	 0,549723725787839 
1062	 0,55133242759927 
1063	 0,558503212665187 
1064	 0,567751201517431 
1065	 0,563065200764062 
1066	 0,560139590900125 
1067	 0,563475709707061 
1068	 0,556038578074058 
1069	 0,546802589039896 
1070	 0,544023627348361 
1071	 0,55709050582891 
1072	 0,565728498306202 
1073	 0,547279105425413 
1074	 0,560214813692146 
1075	 0,58509654723856 
