Wavelength	PENFOUL00196.asd
325	 0,237371479660259 
326	 0,376347539333581 
327	 0,38416674247708 
328	 0,216899469740814 
329	 0,13888280323728 
330	 0,192639936230494 
331	 0,316598077865797 
332	 0,2674252472734 
333	 0,110898596726826 
334	 0,124971640406968 
335	 0,141313379746387 
336	 0,106944810668712 
337	 3,39536806452837E-02 
338	 1,91048393009427E-02 
339	 0,131054106883492 
340	 0,147038640400864 
341	 0,107155802573552 
342	 0,136547635686615 
343	 0,151683083265022 
344	 0,130143544461276 
345	 0,1211097379557 
346	 8,96737545080362E-02 
347	 1,25747934276759E-02 
348	 3,19683876253052E-02 
349	 0,10690807219632 
350	 9,09136176230406E-02 
351	 6,19339654384654E-02 
352	 5,11226863965349E-02 
353	 0,067616408202118 
354	 8,19621931272453E-02 
355	 6,80952136474226E-02 
356	 6,95846262420325E-02 
357	 9,10500805081942E-02 
358	 0,123283808101129 
359	 0,114549336301481 
360	 5,35243380259114E-02 
361	 2,32466658366219E-02 
362	 2,60909342911292E-02 
363	 4,76234775594604E-02 
364	 7,19619863854094E-02 
365	 8,85796502764029E-02 
366	 6,96878448289169E-02 
367	 6,06969081545789E-02 
368	 8,19750386007461E-02 
369	 5,98215521502719E-02 
370	 2,27133319439579E-02 
371	 3,98834021859912E-02 
372	 2,80171536560547E-02 
373	-0,011372081231951 
374	 4,05270547078184E-02 
375	 7,96274531271504E-02 
376	 4,34266977796084E-02 
377	 5,76829784742601E-02 
378	 9,31639383054758E-02 
379	 4,73995721486467E-02 
380	 2,09257138833612E-02 
381	 4,24307121093014E-02 
382	 6,38085196004952E-02 
383	 0,067563458408164 
384	 4,29005078767963E-02 
385	 3,45576556674052E-02 
386	 4,06330312361515E-02 
387	 2,85694748453804E-02 
388	 2,92171230700551E-02 
389	 4,88514932687563E-02 
390	 5,66075650155201E-02 
391	 5,51710719374629E-02 
392	 5,05756656818741E-02 
393	 0,04404025616939 
394	 3,68497420240888E-02 
395	 2,95004396122776E-02 
396	 2,61365422270568E-02 
397	 2,81371458925221E-02 
398	 2,63338470777503E-02 
399	 2,86929948029832E-02 
400	 4,95568383786779E-02 
401	 4,56461251020262E-02 
402	 2,01500725124087E-02 
403	 2,85120120352868E-02 
404	 4,11357481808153E-02 
405	 3,82728960267814E-02 
406	 3,24947149686394E-02 
407	 2,95359690243781E-02 
408	 3,87087129711561E-02 
409	 4,24829001455388E-02 
410	 3,79313942340448E-02 
411	 3,76655703943891E-02 
412	 3,77993023488802E-02 
413	 3,42251149135221E-02 
414	 2,62698035147675E-02 
415	 1,96702211314738E-02 
416	 3,00556444054202E-02 
417	 0,038120285965094 
418	 3,73388758039013E-02 
419	 4,11712319773899E-02 
420	 4,35331378096102E-02 
421	 3,56680490201849E-02 
422	 3,46358554762634E-02 
423	 3,98016395061923E-02 
424	 3,42303351807478E-02 
425	 2,99921456451992E-02 
426	 3,36639104180479E-02 
427	 3,70871942340323E-02 
428	 3,78318188901962E-02 
429	 3,34913412240892E-02 
430	 3,00228399524804E-02 
431	 0,029708414166763 
432	 0,033157219590401 
433	 3,62139249562759E-02 
434	 3,54627663249069E-02 
435	 3,39824746148751E-02 
436	 3,33915570718018E-02 
437	 3,63889832911444E-02 
438	 3,86066016839358E-02 
439	 3,81904463205104E-02 
440	 3,60694557975456E-02 
441	 3,42270140476012E-02 
442	 3,50133982912167E-02 
443	 3,25904791732078E-02 
444	 2,84315736469967E-02 
445	 3,23080738101387E-02 
446	 3,63408425680578E-02 
447	 3,56969144671739E-02 
448	 3,39265000438257E-02 
449	 3,24737031307144E-02 
450	 0,033098689308789 
451	 3,38668965767788E-02 
452	 3,46185971480897E-02 
453	 3,80329986606761E-02 
454	 3,96517621981205E-02 
455	 0,03568928042585 
456	 3,37668654605128E-02 
457	 3,41138707503687E-02 
458	 3,27826867039048E-02 
459	 3,33305952771686E-02 
460	 3,64131041869077E-02 
461	 0,036817494227434 
462	 3,56184382324449E-02 
463	 0,034915924949423 
464	 0,034380755251138 
465	 3,43707689906059E-02 
466	 3,61119945064069E-02 
467	 3,77669774350292E-02 
468	 3,80146187826714E-02 
469	 3,64313134509648E-02 
470	 3,48336002556548E-02 
471	 3,69346772481449E-02 
472	 3,81790738341715E-02 
473	 3,75692613383904E-02 
474	 3,83091364419159E-02 
475	 3,81937099424962E-02 
476	 0,035185222576034 
477	 3,62157051841398E-02 
478	 3,94396828699595E-02 
479	 3,53807911429457E-02 
480	 0,033088262588048 
481	 3,62221336074028E-02 
482	 3,90621296882932E-02 
483	 3,97401878300169E-02 
484	 3,64623895741402E-02 
485	 3,61837927065007E-02 
486	 3,92981048996537E-02 
487	 3,94185087937817E-02 
488	 0,038820419463331 
489	 3,92080726143617E-02 
490	 0,038925401958259 
491	 3,80251357515464E-02 
492	 3,70154499460738E-02 
493	 3,65939345873251E-02 
494	 3,68424746277162E-02 
495	 0,03628146037536 
496	 3,63046273095213E-02 
497	 3,85204456767251E-02 
498	 3,79687978049334E-02 
499	 3,53685620090335E-02 
500	 3,64770275481141E-02 
501	 3,79101820115433E-02 
502	 3,78517816274436E-02 
503	 3,81077445797331E-02 
504	 0,038304261234219 
505	 3,73950526725113E-02 
506	 3,65779849433303E-02 
507	 3,64835146346388E-02 
508	 0,038198191045258 
509	 3,91120599857537E-02 
510	 3,71784216380276E-02 
511	 3,84905786047094E-02 
512	 4,18381241511615E-02 
513	 4,09564095942667E-02 
514	 0,040701556219039 
515	 4,25203347767891E-02 
516	 4,15774019078774E-02 
517	 3,96607632638606E-02 
518	 3,98328998021464E-02 
519	 4,05661078632843E-02 
520	 4,13243101194825E-02 
521	 4,16629238444562E-02 
522	 4,16431952676195E-02 
523	 4,13792498236176E-02 
524	 4,14481922036376E-02 
525	 4,18108274790434E-02 
526	 4,21075038333329E-02 
527	 0,042653947962711 
528	 4,34054782828906E-02 
529	 4,38629813402898E-02 
530	 4,34426608618471E-02 
531	 4,15810411459788E-02 
532	 4,10926682988148E-02 
533	 4,21087185306882E-02 
534	 4,29121235490667E-02 
535	 4,30512127449686E-02 
536	 0,042386024406417 
537	 4,24219789968762E-02 
538	 4,29787818992487E-02 
539	 4,33497807560682E-02 
540	 4,34844692404375E-02 
541	 4,34009444866063E-02 
542	 4,33079901800373E-02 
543	 4,36490313536179E-02 
544	 4,47580858209629E-02 
545	 4,48813418388804E-02 
546	 4,41488096456455E-02 
547	 4,39311129182727E-02 
548	 4,38998304670747E-02 
549	 4,40055705721315E-02 
550	 4,48602764736248E-02 
551	 4,56383877881412E-02 
552	 4,50085468059401E-02 
553	 4,41978540609847E-02 
554	 4,38200393121493E-02 
555	 4,46472595213189E-02 
556	 4,57583623674435E-02 
557	 4,63135246046169E-02 
558	 4,60365940707879E-02 
559	 4,53106753945213E-02 
560	 4,51569207898627E-02 
561	 4,53607599089085E-02 
562	 0,045717474567279 
563	 4,53966410269647E-02 
564	 4,48250686355141E-02 
565	 4,46576993492962E-02 
566	 4,48884532924614E-02 
567	 4,54191262774229E-02 
568	 0,045898200146913 
569	 4,62556417695075E-02 
570	 4,64514459158713E-02 
571	 4,65707559964569E-02 
572	 4,68674383668516E-02 
573	 4,79184061017893E-02 
574	 4,85030090839056E-02 
575	 4,84009204029326E-02 
576	 0,049042487031257 
577	 4,97433719974832E-02 
578	 4,96542098788804E-02 
579	 4,99739012207452E-02 
580	 5,07684861503365E-02 
581	 5,13419309156444E-02 
582	 5,18754985674962E-02 
583	 5,25102124955176E-02 
584	 5,36940832113085E-02 
585	 0,054696850314205 
586	 5,41357441467083E-02 
587	 5,38219964600407E-02 
588	 5,42039225829305E-02 
589	 5,44167510389031E-02 
590	 5,48474768487072E-02 
591	 5,58105196304825E-02 
592	 5,59421264453128E-02 
593	 5,53875998362976E-02 
594	 5,52682186489144E-02 
595	 5,52899157471894E-02 
596	 5,54029780043772E-02 
597	 5,59965244825025E-02 
598	 0,056621309650782 
599	 5,65764985790487E-02 
600	 5,64234581446606E-02 
601	 5,62329936955458E-02 
602	 5,55015965364338E-02 
603	 5,53269144574981E-02 
604	 5,64084822429605E-02 
605	 5,62835553656337E-02 
606	 5,53589033496893E-02 
607	 5,58145180684381E-02 
608	 5,56126330463022E-02 
609	 0,054407980567949 
610	 5,48075762574125E-02 
611	 5,54368708914826E-02 
612	 5,43663204799674E-02 
613	 5,40266979980967E-02 
614	 5,44748982591482E-02 
615	 5,37970948625915E-02 
616	 5,32495611876942E-02 
617	 5,35711869972441E-02 
618	 5,36752091206242E-02 
619	 5,36917771962502E-02 
620	 5,42643005905735E-02 
621	 5,43308391616724E-02 
622	 5,36901604886785E-02 
623	 5,31852382117146E-02 
624	 5,28973250054063E-02 
625	 5,28704834679076E-02 
626	 5,36263692175825E-02 
627	 5,45712226010535E-02 
628	 5,36655756026722E-02 
629	 5,29966708025723E-02 
630	 5,36049064974322E-02 
631	 0,054515851252767 
632	 5,52659881096726E-02 
633	 5,53451596791694E-02 
634	 5,49881986870634E-02 
635	 5,45881543847038E-02 
636	 5,53102217652305E-02 
637	 5,63122499573817E-02 
638	 5,68332861683926E-02 
639	 5,70646559322751E-02 
640	 5,71696224516463E-02 
641	 5,74683060104872E-02 
642	 5,79286848203685E-02 
643	 5,84393634620236E-02 
644	 5,84223679380649E-02 
645	 5,81342035918225E-02 
646	 5,79715395637592E-02 
647	 5,83969325496574E-02 
648	 5,90698204497455E-02 
649	 5,83104595094464E-02 
650	 5,78089606517678E-02 
651	 5,85385204723472E-02 
652	 5,83411054692234E-02 
653	 5,74022317604886E-02 
654	 5,67178007128063E-02 
655	 5,63139799892931E-02 
656	 5,60937225375336E-02 
657	 5,52421624221989E-02 
658	 5,45427750543649E-02 
659	 5,47880924016279E-02 
660	 5,40693919126498E-02 
661	 5,25258062973085E-02 
662	 5,17143838316715E-02 
663	 0,051288380146433 
664	 5,10333558108535E-02 
665	 5,05549497169917E-02 
666	 4,99008923898448E-02 
667	 4,92102244952897E-02 
668	 4,89553376816872E-02 
669	 4,91040759572078E-02 
670	 4,89339352451598E-02 
671	 4,86907431500821E-02 
672	 4,85699619002332E-02 
673	 4,82752309907763E-02 
674	 4,79619738223054E-02 
675	 4,80874912313362E-02 
676	 4,83684056878126E-02 
677	 4,86364076147619E-02 
678	 4,85811863126991E-02 
679	 4,85582160642684E-02 
680	 4,90103747605873E-02 
681	 4,95024797470386E-02 
682	 4,98679054004721E-02 
683	 4,99168507870569E-02 
684	 0,050057445387982 
685	 5,05673793341298E-02 
686	 5,14357718135364E-02 
687	 0,052592080864817 
688	 5,39213630665694E-02 
689	 5,53701644370527E-02 
690	 5,69301488447669E-02 
691	 5,86789391522162E-02 
692	 6,05958536372245E-02 
693	 6,26945033301833E-02 
694	 6,54936912449266E-02 
695	 6,87661737011794E-02 
696	 7,16137041716903E-02 
697	 7,51240862250185E-02 
698	 0,079525389419597 
699	 8,33704276523261E-02 
700	 8,70882696427184E-02 
701	 9,13991035881414E-02 
702	 9,60298752064942E-02 
703	 0,100707911846437 
704	 0,104775891774826 
705	 0,108926174961361 
706	 0,113518249964727 
707	 0,11764060444458 
708	 0,121269502979609 
709	 0,124620336627298 
710	 0,127755246474297 
711	 0,130718060184635 
712	 0,13350463442924 
713	 0,136194520687982 
714	 0,13883062409716 
715	 0,14109059883289 
716	 0,142991262987001 
717	 0,144726424458237 
718	 0,146347304979206 
719	 0,147960025007671 
720	 0,149989894809782 
721	 0,151844553138152 
722	 0,152744262937238 
723	 0,153787620483366 
724	 0,155131402366341 
725	 0,156344896196127 
726	 0,157270195309012 
727	 0,157887947780151 
728	 0,158935705227519 
729	 0,160130010543984 
730	 0,160804322465352 
731	 0,161188082720309 
732	 0,161441028881361 
733	 0,161945099011227 
734	 0,162473915657679 
735	 0,162823856289937 
736	 0,16316449036339 
737	 0,163599813300562 
738	 0,164381412248421 
739	 0,164793000760131 
740	 0,164721800913038 
741	 0,165284361629313 
742	 0,165894370101698 
743	 0,165790884082221 
744	 0,166108083332729 
745	 0,166838915645171 
746	 0,167168344165792 
747	 0,167322430296931 
748	 0,167470376979918 
749	 0,168019272972895 
750	 0,168544141825549 
751	 0,16830565286684 
752	 0,168526002545212 
753	 0,169218915716314 
754	 0,169075488906942 
755	 0,168837935411286 
756	 0,169072141768749 
757	 0,169594606979013 
758	 0,170223991757164 
759	 0,170689660642826 
760	 0,170880395742201 
761	 0,170826078244091 
762	 0,170897592199461 
763	 0,171019573138778 
764	 0,171109799870365 
765	 0,171319487295979 
766	 0,171592822168168 
767	 0,171725768630066 
768	 0,171818938964525 
769	 0,171917951586236 
770	 0,172017827253473 
771	 0,172255494642567 
772	 0,172773186505418 
773	 0,172954338465703 
774	 0,172792838823736 
775	 0,172684058534624 
776	 0,172870798720041 
777	 0,173384836962089 
778	 0,173396612581836 
779	 0,173198097598331 
780	 0,173350386051075 
781	 0,17371634908795 
782	 0,174145593988931 
783	 0,174229507778163 
784	 0,174236582154017 
785	 0,174362110419138 
786	 0,174654160559689 
787	 0,174933801949482 
788	 0,174876459453064 
789	 0,174724894075853 
790	 0,174629940131793 
791	 0,174852543314 
792	 0,175112220211744 
793	 0,175191007196803 
794	 0,175378004196743 
795	 0,175592504564482 
796	 0,175519409527444 
797	 0,175850286909019 
798	 0,176564754492337 
799	 0,176402110295249 
800	 0,17607127657817 
801	 0,176279375016071 
802	 0,176494014424602 
803	 0,176666259311166 
804	 0,176941944440946 
805	 0,17708586384294 
806	 0,177033441993376 
807	 0,176925480761966 
808	 0,176986658112959 
809	 0,177420327262441 
810	 0,177764377621136 
811	 0,177889769748009 
812	 0,177717412366133 
813	 0,177719089577629 
814	 0,178032763377746 
815	 0,178096556211573 
816	 0,178017600422131 
817	 0,177984863771113 
818	 0,178027452771503 
819	 0,178158265159245 
820	 0,178368409291593 
821	 0,178624828860629 
822	 0,17884069923981 
823	 0,178585363939183 
824	 0,178424961800391 
825	 0,179114424092223 
826	 0,180001084226982 
827	 0,180561507847476 
828	 0,179651533403342 
829	 0,179179883133297 
830	 0,17993014321333 
831	 0,179747667136625 
832	 0,179203214270637 
833	 0,179377671557301 
834	 0,179574562963317 
835	 0,17966401926217 
836	 0,179741391406842 
837	 0,179984791950883 
838	 0,180424654126505 
839	 0,180551709470946 
840	 0,1805244297004 
841	 0,180650206052346 
842	 0,180583798065096 
843	 0,180423642731968 
844	 0,180758503078016 
845	 0,181093451150054 
846	 0,181147926071728 
847	 0,181063413566886 
848	 0,180922568324627 
849	 0,180818791242699 
850	 0,180781545656577 
851	 0,180845951588096 
852	 0,18111811129155 
853	 0,181232678022091 
854	 0,180999055205385 
855	 0,18057372682152 
856	 0,180378851602473 
857	 0,180935567948268 
858	 0,18129235050439 
859	 0,181349807630235 
860	 0,181724608067557 
861	 0,181648612354367 
862	 0,180931567924629 
863	 0,181032348118285 
864	 0,181589061722184 
865	 0,181921455272365 
866	 0,182267868453969 
867	 0,182536913127923 
868	 0,182337151647237 
869	 0,182289742745706 
870	 0,182523677716663 
871	 0,181781739861271 
872	 0,181018885394914 
873	 0,181477389773376 
874	 0,18209246556008 
875	 0,182497190391541 
876	 0,182299131516563 
877	 0,182549321631645 
878	 0,183483738400477 
879	 0,183730010246267 
880	 0,183442790624601 
881	 0,182940933950126 
882	 0,182548346764561 
883	 0,18251604392634 
884	 0,183370321828847 
885	 0,183461346846384 
886	 0,182632919875886 
887	 0,183534813496476 
888	 0,184752333167457 
889	 0,184828523113336 
890	 0,184325301166646 
891	 0,183824924354516 
892	 0,184396485764743 
893	 0,18476185197865 
894	 0,184608892725673 
895	 0,184546682875503 
896	 0,184667868569032 
897	 0,184991089709203 
898	 0,18509267256985 
899	 0,185060237496578 
900	 0,185214155851459 
901	 0,184584693611894 
902	 0,183579612384097 
903	 0,184767339761474 
904	 0,185731100979208 
905	 0,185112182952706 
906	 0,185035478657566 
907	 0,185228925333199 
908	 0,184951128364512 
909	 0,185278195779306 
910	 0,186031089327911 
911	 0,185810127370442 
912	 0,185711659733937 
913	 0,186090975588242 
914	 0,185666181700552 
915	 0,185562132157969 
916	 0,186989070510543 
917	 0,187033156483966 
918	 0,185904987212855 
919	 0,185636092185263 
920	 0,185670022429146 
921	 0,185883202204539 
922	 0,186418319893452 
923	 0,186468704887774 
924	 0,185551757057025 
925	 0,185862573915955 
926	 0,186651678871867 
927	 0,185918212169363 
928	 0,185747357946056 
929	 0,186194574427423 
930	 0,185103250177972 
931	 0,184604033663323 
932	 0,185740513003514 
933	 0,186415907965059 
934	 0,186646846828658 
935	 0,186752966927492 
936	 0,185845693316721 
937	 0,184522267451017 
938	 0,184839373798727 
939	 0,185781953938464 
940	 0,186627512763654 
941	 0,185903937693217 
942	 0,18489618919672 
943	 0,184847373108082 
944	 0,185459926319321 
945	 0,185972081280942 
946	 0,18504006703149 
947	 0,185005232591365 
948	 0,185826228563274 
949	 0,184772004588633 
950	 0,183487372761546 
951	 0,182927293405243 
952	 0,182576241354021 
953	 0,182232204312271 
954	 0,181753434227379 
955	 0,18263209001227 
956	 0,184065866280187 
957	 0,183266658726856 
958	 0,182133610322856 
959	 0,181542562927126 
960	 0,182454301521698 
961	 0,182301730681694 
962	 0,179767513132878 
963	 0,181404888507327 
964	 0,184169626924974 
965	 0,182167990344362 
966	 0,180464827002585 
967	 0,180296352148565 
968	 0,181578393644557 
969	 0,181776533428519 
970	 0,180151482076889 
971	 0,179389520703037 
972	 0,179496999534814 
973	 0,180304138459392 
974	 0,18200204356184 
975	 0,183159734905607 
976	 0,181351748220535 
977	 0,179715605703731 
978	 0,17968528211208 
979	 0,182732492883751 
980	 0,185425539790219 
981	 0,185927288220764 
982	 0,185399202400382 
983	 0,184202669303799 
984	 0,182752809561034 
985	 0,182117114285321 
986	 0,18241462010252 
987	 0,18337233252006 
988	 0,184661278782347 
989	 0,185752124100441 
990	 0,185570789041769 
991	 0,184782690156499 
992	 0,183925809713957 
993	 0,183509724947393 
994	 0,184012134735041 
995	 0,185713674569892 
996	 0,186799764634128 
997	 0,187417907209871 
998	 0,188642405419618 
999	 0,189021229699273 
1000	 0,188591564039245 
1001	 0,189039215606844 
1002	 0,189060806206699 
1003	 0,188580195144681 
1004	 0,191281193626895 
1005	 0,193046697637527 
1006	 0,190087906618896 
1007	 0,188626703890708 
1008	 0,188520373005476 
1009	 0,18744686682185 
1010	 0,188455706398602 
1011	 0,1909268834692 
1012	 0,190505674838845 
1013	 0,188607620646494 
1014	 0,186975848404502 
1015	 0,190964441358723 
1016	 0,195113080333419 
1017	 0,194712474402766 
1018	 0,193138710165243 
1019	 0,191651461849586 
1020	 0,191296531523478 
1021	 0,188269790758795 
1022	 0,184464354667323 
1023	 0,187789922750964 
1024	 0,189598944911033 
1025	 0,188438892429573 
1026	 0,19181188447695 
1027	 0,196386033222845 
1028	 0,199152154383918 
1029	 0,196137511078764 
1030	 0,191959353549404 
1031	 0,192546712145596 
1032	 0,196018959085632 
1033	 0,200306199045784 
1034	 0,201757894624955 
1035	 0,205835455039049 
1036	 0,209523423720048 
1037	 0,19630918172712 
1038	 0,186176427253025 
1039	 0,18786430413504 
1040	 0,192253170833615 
1041	 0,195218595826297 
1042	 0,194300062697972 
1043	 0,196908654120802 
1044	 0,201141179522859 
1045	 0,202920816698066 
1046	 0,198575517644604 
1047	 0,192726338301815 
1048	 0,198804634637132 
1049	 0,198949500319903 
1050	 0,191797100200567 
1051	 0,194113637809396 
1052	 0,197420787029423 
1053	 0,197682396925583 
1054	 0,197885266662502 
1055	 0,199121940937164 
1056	 0,202007911745719 
1057	 0,204544139906993 
1058	 0,206326738339276 
1059	 0,207265800520279 
1060	 0,203361842476234 
1061	 0,198108936169876 
1062	 0,201325518603354 
1063	 0,204817134766337 
1064	 0,206276418456147 
1065	 0,206414034945741 
1066	 0,208671972695307 
1067	 0,212331380623779 
1068	 0,204415840234308 
1069	 0,200415211704182 
1070	 0,208358518474837 
1071	 0,196494809673453 
1072	 0,182585364722798 
1073	 0,192002980706221 
1074	 0,194345984547364 
1075	 0,189382531279067 
