Wavelength	PENFOUL00418.asd
325	 0,18596334376397 
326	 0,244358213699211 
327	 0,268517114621976 
328	 0,222083183432138 
329	 0,225414325480695 
330	 0,247545827111859 
331	 0,247850678267031 
332	 0,193412471317073 
333	 0,111414057148283 
334	 0,181382450312892 
335	 0,19284603097582 
336	 0,111948765890804 
337	 8,94494359359429E-02 
338	 0,11276524316127 
339	 0,152866198808183 
340	 0,170244203489394 
341	 0,157711043864611 
342	 0,100697255545212 
343	 4,83082741227094E-02 
344	 2,65918458716275E-02 
345	 7,06676875406273E-02 
346	 9,50947089436818E-02 
347	 2,96662128934899E-02 
348	 0,021958720202357 
349	 0,053749077399168 
350	 0,030017545543269 
351	 6,47984500791607E-03 
352	 4,8662714610175E-03 
353	 2,74535953674692E-02 
354	 4,56266664674997E-02 
355	 3,69280178892815E-02 
356	 4,49211092316482E-02 
357	 6,88124489930961E-02 
358	 8,01300948597695E-02 
359	 6,77460809162305E-02 
360	 3,31496933784947E-02 
361	 2,20190417073419E-02 
362	 3,06606102498272E-02 
363	 0,04342214329324 
364	 5,06909453351596E-02 
365	 5,14372460042911E-02 
366	 5,13922504949035E-02 
367	 4,54013470016706E-02 
368	 3,30969219872549E-02 
369	 3,70153237765695E-02 
370	 4,33081127207173E-02 
371	 2,12433357467255E-02 
372	 1,51853467073703E-02 
373	 3,57632212568859E-02 
374	 7,26405671016594E-02 
375	 0,071294306665242 
376	 5,0874271553406E-03 
377	 0,022035511439924 
378	 8,16083794229041E-02 
379	 5,31224299876744E-02 
380	 2,51650905042993E-02 
381	 2,74435107163972E-02 
382	 4,59545646717745E-02 
383	 6,36671331695568E-02 
384	 0,066479019789631 
385	 4,97843471404362E-02 
386	 2,53645687735224E-02 
387	 2,08667859332121E-02 
388	 3,23041634660114E-02 
389	 5,15267414201451E-02 
390	 4,64701299668752E-02 
391	 0,034190449973193 
392	 3,77905256330133E-02 
393	 3,56306982718623E-02 
394	 2,77341774081563E-02 
395	 2,72842971789791E-02 
396	 2,81478729508552E-02 
397	 2,66829714317055E-02 
398	 1,94166512902261E-02 
399	 1,66824874892507E-02 
400	 3,44491376022681E-02 
401	 3,67812069064959E-02 
402	 2,26531378729879E-02 
403	 2,49975728729597E-02 
404	 2,88937889589752E-02 
405	 2,48700933025045E-02 
406	 2,58765410252399E-02 
407	 2,85615100965452E-02 
408	 2,17810017841426E-02 
409	 2,04741448156104E-02 
410	 2,62112374806552E-02 
411	 2,60495804234952E-02 
412	 2,29978391941492E-02 
413	 2,05864695390698E-02 
414	 1,96558154039034E-02 
415	 1,95981458139316E-02 
416	 1,78839595879955E-02 
417	 1,79478801550974E-02 
418	 2,08688737494359E-02 
419	 2,48129398750839E-02 
420	 2,72678238454446E-02 
421	 2,56083120772211E-02 
422	 2,43690991075558E-02 
423	 2,41372345606451E-02 
424	 0,02241865983419 
425	 2,23141806262619E-02 
426	 2,49126572393075E-02 
427	 2,34532551093864E-02 
428	 1,93279505978888E-02 
429	 1,61433777028398E-02 
430	 1,67361383923011E-02 
431	 2,07777510028051E-02 
432	 2,24404256024736E-02 
433	 2,29650794727784E-02 
434	 2,35577243751608E-02 
435	 2,09310585348743E-02 
436	 1,77696231494157E-02 
437	 2,25388040658659E-02 
438	 2,53304854801152E-02 
439	 2,28630994414225E-02 
440	 2,17431336070657E-02 
441	 2,13718866986701E-02 
442	 0,020273226957698 
443	 1,88583109856036E-02 
444	 1,76383641246206E-02 
445	 1,79089555847733E-02 
446	 1,88245939678125E-02 
447	 1,97432490640368E-02 
448	 2,05593364895369E-02 
449	 2,03109779394646E-02 
450	 1,70278234016313E-02 
451	 1,60060396126889E-02 
452	 1,85599943690985E-02 
453	 2,25140362195238E-02 
454	 2,47717147043781E-02 
455	 0,022782666038176 
456	 2,07191539899862E-02 
457	 1,89413895544341E-02 
458	 1,54610575833238E-02 
459	 1,45011037715886E-02 
460	 1,70908717090999E-02 
461	 1,70330415953974E-02 
462	 1,66774618402944E-02 
463	 0,019935717713764 
464	 1,98054742592592E-02 
465	 1,68571826835576E-02 
466	 0,019759228042696 
467	 2,14890375820472E-02 
468	 1,80372780681424E-02 
469	 1,71728634159074E-02 
470	 1,88663017116954E-02 
471	 2,08798544918016E-02 
472	 2,21353298670411E-02 
473	 2,22817150270423E-02 
474	 2,29130872324661E-02 
475	 2,14897630988955E-02 
476	 1,58166067730611E-02 
477	 1,39263870700697E-02 
478	 1,59200431601623E-02 
479	 1,73444404161834E-02 
480	 1,78363624282847E-02 
481	 1,73300569105422E-02 
482	 1,79391881012505E-02 
483	 1,87679078246597E-02 
484	 1,81402498880577E-02 
485	 1,84185399969592E-02 
486	 1,97538881157502E-02 
487	 2,03416415211215E-02 
488	 2,03649395429619E-02 
489	 2,00045316388839E-02 
490	 1,94009214496904E-02 
491	 1,89339738266875E-02 
492	 1,94999166737415E-02 
493	 1,90376031650484E-02 
494	 1,73846247144676E-02 
495	 1,80434100612481E-02 
496	 1,86631060467514E-02 
497	 1,63937298097757E-02 
498	 1,51917907096617E-02 
499	 1,57154608476211E-02 
500	 1,70409969921197E-02 
501	 1,82163692871227E-02 
502	 1,86408764668574E-02 
503	 1,88583940597894E-02 
504	 0,018491285697098 
505	 1,66505484405301E-02 
506	 1,55438166062094E-02 
507	 1,59653209437877E-02 
508	 1,81695113313899E-02 
509	 1,94217125552022E-02 
510	 1,75326799390182E-02 
511	 1,72123191723164E-02 
512	 1,81312570502363E-02 
513	 1,67121553447277E-02 
514	 0,016452230893355 
515	 1,83867257875496E-02 
516	 1,89243332181794E-02 
517	 1,84916354899461E-02 
518	 1,82119927238257E-02 
519	 1,75970973113617E-02 
520	 1,70080284789989E-02 
521	 1,80228025102026E-02 
522	 1,89468039809922E-02 
523	 1,85440413753421E-02 
524	 1,76197831559674E-02 
525	 0,016758759039839 
526	 1,68826450238466E-02 
527	 1,73148722610974E-02 
528	 1,77674766884268E-02 
529	 1,82514829926484E-02 
530	 1,81854736770236E-02 
531	 1,69584762746606E-02 
532	 1,63620035787273E-02 
533	 1,66562654463367E-02 
534	 1,72075633537709E-02 
535	 1,76983915803276E-02 
536	 1,78584303681489E-02 
537	 1,73106284582136E-02 
538	 1,67473540856194E-02 
539	 1,75268729986802E-02 
540	 1,82287877348961E-02 
541	 1,82653937901319E-02 
542	 1,71574212708341E-02 
543	 1,62788111123469E-02 
544	 1,69182910271121E-02 
545	 1,73511395485468E-02 
546	 1,74290854280326E-02 
547	 1,79572771464261E-02 
548	 1,76790616597343E-02 
549	 1,63636329882821E-02 
550	 1,69051182198179E-02 
551	 1,82237981100695E-02 
552	 1,82049355166214E-02 
553	 1,74196295719133E-02 
554	 1,63495786176275E-02 
555	 1,62120698037391E-02 
556	 1,67207899279494E-02 
557	 1,75093218007885E-02 
558	 1,74747120090955E-02 
559	 1,68984587761349E-02 
560	 1,70083395845752E-02 
561	 1,73186845305861E-02 
562	 1,76432934416464E-02 
563	 1,80641451425097E-02 
564	 1,80460828813285E-02 
565	 1,69013422191417E-02 
566	 1,62965959095469E-02 
567	 0,016570480549795 
568	 1,72878591440909E-02 
569	 1,74721742512151E-02 
570	 1,65817199440445E-02 
571	 0,016436864858416 
572	 1,70760809182251E-02 
573	 1,80209558252972E-02 
574	 1,83734565190504E-02 
575	 1,79831043357531E-02 
576	 1,82373195582982E-02 
577	 1,85700473854888E-02 
578	 1,82607306283811E-02 
579	 1,85603560363391E-02 
580	 1,93439898842138E-02 
581	 1,93870807984985E-02 
582	 0,018981616201337 
583	 1,84832970528106E-02 
584	 1,93766543371059E-02 
585	 2,06166264906299E-02 
586	 2,00110550793759E-02 
587	 1,97865608602247E-02 
588	 2,03089943912961E-02 
589	 1,99076117301868E-02 
590	 1,97986413525731E-02 
591	 2,10437588248645E-02 
592	 2,09229164048537E-02 
593	 1,97361465149231E-02 
594	 1,97434394353362E-02 
595	 0,020107546234708 
596	 2,04559198303397E-02 
597	 2,08662053001408E-02 
598	 2,08928219248308E-02 
599	 1,98626672416412E-02 
600	 1,95981505854734E-02 
601	 2,02858209407906E-02 
602	 2,04460022690656E-02 
603	 2,04108120867631E-02 
604	 2,04292122650843E-02 
605	 1,99980248738533E-02 
606	 1,93740161456619E-02 
607	 1,93998775244723E-02 
608	 1,91167441441405E-02 
609	 1,84582469527851E-02 
610	 1,92813226668169E-02 
611	 2,01160454414512E-02 
612	 1,90089505062745E-02 
613	 1,83428798144563E-02 
614	 1,85213473517741E-02 
615	 1,87996944280646E-02 
616	 1,90090308429358E-02 
617	 1,90195630737057E-02 
618	 1,88275838169246E-02 
619	 1,87723040005472E-02 
620	 1,96045950062247E-02 
621	 1,97219316326895E-02 
622	 1,88496155671913E-02 
623	 1,85230420382502E-02 
624	 1,83063755091793E-02 
625	 1,76981945966157E-02 
626	 1,77936751264597E-02 
627	 1,84909438855055E-02 
628	 1,88056727472323E-02 
629	 1,92327935196458E-02 
630	 1,98784082518014E-02 
631	 1,97599675317512E-02 
632	 1,93413144429811E-02 
633	 1,95446798634877E-02 
634	 1,97088817784752E-02 
635	 1,96905606788118E-02 
636	 1,95738749230645E-02 
637	 1,99196236529889E-02 
638	 2,11011278150594E-02 
639	 2,16241331273723E-02 
640	 2,15337472981251E-02 
641	 2,17027502156712E-02 
642	 2,18389395480885E-02 
643	 2,18506194144976E-02 
644	 2,17290850106634E-02 
645	 2,16315178297208E-02 
646	 2,17594005841811E-02 
647	 2,17036136886476E-02 
648	 2,14447375897146E-02 
649	 2,12623611282818E-02 
650	 2,12518307690315E-02 
651	 2,14409677178824E-02 
652	 2,14561775339733E-02 
653	 2,13109857879601E-02 
654	 2,11924150460959E-02 
655	 2,08267946160574E-02 
656	 2,02023199436748E-02 
657	 1,95798211107989E-02 
658	 1,94423607597292E-02 
659	 2,01942233385016E-02 
660	 1,99695700311078E-02 
661	 1,89331305056542E-02 
662	 1,87450912338973E-02 
663	 1,89240906362381E-02 
664	 1,91657678952822E-02 
665	 1,90329110254065E-02 
666	 1,85299517532046E-02 
667	 1,77189279354603E-02 
668	 1,76744050879347E-02 
669	 1,83596317961974E-02 
670	 1,83050446852943E-02 
671	 1,79452750790755E-02 
672	 1,76969683274812E-02 
673	 1,79470257872728E-02 
674	 1,83026711217933E-02 
675	 1,74825235444018E-02 
676	 1,74839563936609E-02 
677	 1,87270003859459E-02 
678	 1,91070965455792E-02 
679	 0,018902924540066 
680	 1,86625377914947E-02 
681	 1,82556511110828E-02 
682	 1,79333390219586E-02 
683	 1,85202163235609E-02 
684	 1,88436778516427E-02 
685	 1,83450935535998E-02 
686	 1,85721277158934E-02 
687	 1,92787379337037E-02 
688	 1,96510369228651E-02 
689	 2,01542986357103E-02 
690	 2,08643602603763E-02 
691	 2,15069940604814E-02 
692	 0,022317792316899 
693	 2,35252465132388E-02 
694	 2,51586097886135E-02 
695	 2,71178344971386E-02 
696	 2,90752686754782E-02 
697	 3,15629712041575E-02 
698	 3,47547961023888E-02 
699	 3,81377858576785E-02 
700	 4,20777331572342E-02 
701	 4,70931850952197E-02 
702	 0,0519431117271 
703	 5,65996072359548E-02 
704	 6,21202982593116E-02 
705	 6,80695226467359E-02 
706	 7,41403396006266E-02 
707	 8,03131007894873E-02 
708	 8,62938338605874E-02 
709	 0,091539432926421 
710	 9,72283678348811E-02 
711	 0,103432246367111 
712	 0,108689080084863 
713	 0,113711553172569 
714	 0,119142559247169 
715	 0,123820656949409 
716	 0,127879843640689 
717	 0,132248686144143 
718	 0,136458426494691 
719	 0,140295869145638 
720	 0,143687072022025 
721	 0,146899239208374 
722	 0,150284404918682 
723	 0,15344050096836 
724	 0,156277612909906 
725	 0,158937255308683 
726	 0,161021310538169 
727	 0,162428995395476 
728	 0,164391469001822 
729	 0,166570573040257 
730	 0,168042664424843 
731	 0,169479763886626 
732	 0,170984244653427 
733	 0,172137274805462 
734	 0,173148945033266 
735	 0,174203329047337 
736	 0,175077910498449 
737	 0,175868462286892 
738	 0,176899686888841 
739	 0,177911749814405 
740	 0,178789580190116 
741	 0,179547762307936 
742	 0,180081669486298 
743	 0,180285713829458 
744	 0,180685808294793 
745	 0,181382097636446 
746	 0,182336299264192 
747	 0,182844508441977 
748	 0,182667649392141 
749	 0,183148208165605 
750	 0,183882335657328 
751	 0,183988969506585 
752	 0,184368191336745 
753	 0,185004927508314 
754	 0,184907155507964 
755	 0,184736275108999 
756	 0,18500126538367 
757	 0,185598817244298 
758	 0,18626062048446 
759	 0,186517340855507 
760	 0,186455312299344 
761	 0,186279780569394 
762	 0,186795852297324 
763	 0,187403055091965 
764	 0,187505726123883 
765	 0,187442601829958 
766	 0,187373583100939 
767	 0,187517685442665 
768	 0,187781448188828 
769	 0,1880849593801 
770	 0,188146163324779 
771	 0,188359513236672 
772	 0,189185240734221 
773	 0,189254247476269 
774	 0,188709755839492 
775	 0,188971301767124 
776	 0,189362295851322 
777	 0,189537059196747 
778	 0,189627182724133 
779	 0,189626045206959 
780	 0,189505153697423 
781	 0,189689469044551 
782	 0,190152744936939 
783	 0,190368979524499 
784	 0,190503413835885 
785	 0,190650004423158 
786	 0,190622203281248 
787	 0,190612031820128 
788	 0,191001654224071 
789	 0,191300516601195 
790	 0,19138218198015 
791	 0,191407515314491 
792	 0,19145860622362 
793	 0,191589044619096 
794	 0,191622938796084 
795	 0,191663562485379 
796	 0,192000939672629 
797	 0,192305766219629 
798	 0,192441017699299 
799	 0,192359128519189 
800	 0,192291670593228 
801	 0,192456555482051 
802	 0,192744046737779 
803	 0,19303488869858 
804	 0,193071076358349 
805	 0,193204699700778 
806	 0,193505668169107 
807	 0,193606341857042 
808	 0,193580680267742 
809	 0,193545162121518 
810	 0,193644941970662 
811	 0,193879525714252 
812	 0,194163437037487 
813	 0,19436528827301 
814	 0,194412562978883 
815	 0,1942902873621 
816	 0,19425093317683 
817	 0,194578652703197 
818	 0,194898173564746 
819	 0,19510769925091 
820	 0,195172810496635 
821	 0,195338479756997 
822	 0,195690309235457 
823	 0,19594022600765 
824	 0,196067312265363 
825	 0,196090139216479 
826	 0,196489359961784 
827	 0,197062262047351 
828	 0,196777361623475 
829	 0,196551970965324 
830	 0,19674418837756 
831	 0,196205992646808 
832	 0,195790988978396 
833	 0,196783914336876 
834	 0,197234703279536 
835	 0,196936236444371 
836	 0,1969247164441 
837	 0,196992767641806 
838	 0,197081411397641 
839	 0,19740345501372 
840	 0,197897789949793 
841	 0,19845052034302 
842	 0,198471595382543 
843	 0,198051210701436 
844	 0,197997170404225 
845	 0,198092614419217 
846	 0,198260070694468 
847	 0,198813421862747 
848	 0,199188652296051 
849	 0,198582205456036 
850	 0,198563442823841 
851	 0,199233365326638 
852	 0,199599212236276 
853	 0,199461560495105 
854	 0,198846199853201 
855	 0,198803104808832 
856	 0,199161206200841 
857	 0,199504469159747 
858	 0,19981760285189 
859	 0,200072082845516 
860	 0,200321502165524 
861	 0,200315735673213 
862	 0,200021304054484 
863	 0,200053908289876 
864	 0,200427749213279 
865	 0,201050675225191 
866	 0,201245490115373 
867	 0,201038030041316 
868	 0,201046008559816 
869	 0,201219539811543 
870	 0,20146017976461 
871	 0,201211270388949 
872	 0,200921271692512 
873	 0,201176249021569 
874	 0,201494959890508 
875	 0,201800015400292 
876	 0,202238286118106 
877	 0,202484327582832 
878	 0,202350009864969 
879	 0,201620196352973 
880	 0,201152577475503 
881	 0,201805671447043 
882	 0,201886258937507 
883	 0,201555979452738 
884	 0,202213821970306 
885	 0,20275990500944 
886	 0,202818093218496 
887	 0,202587229568138 
888	 0,202570829252603 
889	 0,203171321023343 
890	 0,203499793263943 
891	 0,203469395366 
892	 0,203265889821427 
893	 0,203156131262733 
894	 0,203156094684608 
895	 0,202726792965394 
896	 0,202707224930611 
897	 0,203614512553137 
898	 0,203726610493772 
899	 0,203384232201353 
900	 0,20372093941655 
901	 0,203286037494154 
902	 0,202304661326612 
903	 0,203141238240426 
904	 0,203920967035606 
905	 0,203618135968072 
906	 0,204086202128845 
907	 0,204740345993134 
908	 0,20446829854745 
909	 0,204568845311761 
910	 0,204967497143418 
911	 0,204294795206054 
912	 0,204186472324416 
913	 0,205197135641155 
914	 0,205722590511044 
915	 0,205610009350751 
916	 0,20490072594139 
917	 0,204247355180488 
918	 0,203915625094082 
919	 0,204155381048872 
920	 0,204255314533417 
921	 0,204050281201251 
922	 0,204172025240053 
923	 0,204248035053929 
924	 0,203993566751639 
925	 0,204038661620436 
926	 0,20411151635879 
927	 0,203577603951351 
928	 0,202557596878233 
929	 0,201550899929877 
930	 0,202159868724379 
931	 0,202827809921916 
932	 0,202690570729017 
933	 0,202812824031482 
934	 0,202918268599832 
935	 0,202538586656718 
936	 0,202198080464767 
937	 0,20182772875989 
938	 0,200765133258113 
939	 0,200492727809739 
940	 0,201019502282966 
941	 0,199096055621793 
942	 0,19772989846968 
943	 0,199435972854116 
944	 0,199913958701902 
945	 0,199332267690744 
946	 0,199433825827608 
947	 0,198353608880761 
948	 0,196366248252672 
949	 0,196433759561631 
950	 0,195830823956749 
951	 0,193331489907571 
952	 0,191637813224993 
953	 0,191290748290224 
954	 0,192444205199498 
955	 0,192397671272758 
956	 0,191187502493518 
957	 0,190488647665419 
958	 0,190520018653897 
959	 0,191170671625052 
960	 0,191600525163017 
961	 0,190161939138868 
962	 0,186393507957632 
963	 0,186978272721327 
964	 0,189640780324896 
965	 0,189492016645621 
966	 0,187508489428361 
967	 0,185295533651827 
968	 0,187382012690579 
969	 0,188486511523156 
970	 0,186824200710277 
971	 0,186207865236712 
972	 0,185705929203507 
973	 0,184586481736942 
974	 0,186836113849149 
975	 0,18988052988118 
976	 0,188096194259826 
977	 0,187071365967428 
978	 0,188032113201351 
979	 0,18968282743742 
980	 0,190361008317384 
981	 0,189593234829524 
982	 0,190470398596738 
983	 0,191093202411113 
984	 0,189427067420891 
985	 0,187425932656143 
986	 0,186234028586931 
987	 0,187166833473652 
988	 0,18943624903753 
989	 0,191827523848753 
990	 0,191453383960512 
991	 0,190000868372631 
992	 0,189012591861082 
993	 0,191727557786239 
994	 0,19390180510904 
995	 0,191250953948478 
996	 0,190210464191149 
997	 0,191592988930022 
998	 0,194713342569946 
999	 0,1943340353405 
1000	 0,19122213642282 
1001	 0,194152372012668 
1002	 0,197049900921301 
1003	 0,197384883933189 
1004	 0,199890589897126 
1005	 0,201259705647118 
1006	 0,198465210189584 
1007	 0,197508866705459 
1008	 0,198296895711435 
1009	 0,198693105445509 
1010	 0,199097028423154 
1011	 0,199113161886564 
1012	 0,196851604707724 
1013	 0,197965471152852 
1014	 0,203574091481875 
1015	 0,20594406433319 
1016	 0,205073847654332 
1017	 0,201886934414257 
1018	 0,200586829661201 
1019	 0,202397275955539 
1020	 0,207725549254433 
1021	 0,207885569747044 
1022	 0,203412665220388 
1023	 0,202070484371044 
1024	 0,203539853346778 
1025	 0,206779938409088 
1026	 0,206288867655923 
1027	 0,206377268126216 
1028	 0,209328482698136 
1029	 0,209811908151758 
1030	 0,208754700983095 
1031	 0,208196472408355 
1032	 0,211652037459336 
1033	 0,217501918104436 
1034	 0,22109642086587 
1035	 0,219384485446922 
1036	 0,21349943606658 
1037	 0,211603227661939 
1038	 0,206041785543027 
1039	 0,197928498255344 
1040	 0,210302402781429 
1041	 0,220762192397324 
1042	 0,212632320140846 
1043	 0,217067587110973 
1044	 0,225872076721183 
1045	 0,222601877991705 
1046	 0,214561243948181 
1047	 0,208357409827016 
1048	 0,216251836677726 
1049	 0,218927974425751 
1050	 0,213504647468862 
1051	 0,213103759553373 
1052	 0,214489909052047 
1053	 0,215689949303516 
1054	 0,215568349837045 
1055	 0,212821652157417 
1056	 0,207495740464157 
1057	 0,207016046163477 
1058	 0,214442327266586 
1059	 0,231138775570533 
1060	 0,231125332232343 
1061	 0,222064229530027 
1062	 0,236359473544597 
1063	 0,24055699996688 
1064	 0,228934093475777 
1065	 0,216670280550254 
1066	 0,214906375378 
1067	 0,225350660090017 
1068	 0,22555339039027 
1069	 0,222586412395709 
1070	 0,221425552721715 
1071	 0,211276882311535 
1072	 0,203043373643583 
1073	 0,211078327017291 
1074	 0,22534930855349 
1075	 0,231489296229727 
