Wavelength	PENFOUL00614.asd
325	 0,184586016503763 
326	 0,16039028977062 
327	 0,106296307527469 
328	 4,34218141433733E-02 
329	 6,28092942935203E-02 
330	 0,156864897024379 
331	 0,237858958356505 
332	 0,213469856851038 
333	 0,139122315592904 
334	 0,195611807282523 
335	 0,215858186808724 
336	 0,155032720473668 
337	 3,66556762877416E-02 
338	-1,51032803522298E-02 
339	 9,70201170098685E-02 
340	 0,108407249073144 
341	 5,67735593108637E-02 
342	 7,33014944580842E-02 
343	 8,06159301676929E-02 
344	 5,91227794455003E-02 
345	 0,043222279032602 
346	 5,05578713377601E-02 
347	 8,69165584998048E-02 
348	 0,103975444942404 
349	 9,46796128370656E-02 
350	 5,40046027627441E-02 
351	 7,5193828651576E-03 
352	-0,022910835415364 
353	 0,043946409920808 
354	 0,106718898208244 
355	 7,56864641002165E-02 
356	 5,49140799157602E-02 
357	 5,86462216291329E-02 
358	 6,51305616767555E-02 
359	 5,88863047707462E-02 
360	 3,58214543542766E-02 
361	 2,09995302428001E-02 
362	 2,15361297069387E-02 
363	 4,19687779921834E-02 
364	 4,12664574498101E-02 
365	 0,021821911458478 
366	 2,70785016253701E-02 
367	 3,74362706396662E-02 
368	 4,11904575056895E-02 
369	 4,99248640632724E-02 
370	 5,91139824869721E-02 
371	 6,05329079568377E-02 
372	 2,65164510345496E-02 
373	-2,29734264432486E-02 
374	 3,81619830145688E-02 
375	 9,29019197631262E-02 
376	 0,068645452173799 
377	 5,41357083930928E-02 
378	 5,24703718813902E-02 
379	 0,031060532033703 
380	 2,38452885290809E-02 
381	 3,71590015787114E-02 
382	 3,77529624675672E-02 
383	 3,39775027479623E-02 
384	 3,46665006599508E-02 
385	 3,30932494114501E-02 
386	 2,92398347179158E-02 
387	 0,024414236732291 
388	 2,63254734623784E-02 
389	 3,63460547624323E-02 
390	 4,49674182937697E-02 
391	 5,18406878292752E-02 
392	 5,70519785807625E-02 
393	 3,85794003972363E-02 
394	 9,57566669761731E-03 
395	 2,21214841137778E-02 
396	 2,94704816357844E-02 
397	 1,15450330686941E-02 
398	 1,29431290314213E-02 
399	 0,024545346222192 
400	 2,63479686701733E-02 
401	 2,14595818979756E-02 
402	 1,51190889639092E-02 
403	 0,024927614505327 
404	 3,57093409880721E-02 
405	 3,72159285222975E-02 
406	 3,07074994019722E-02 
407	 2,29574968367685E-02 
408	 2,71758771307283E-02 
409	 3,46520420797614E-02 
410	 4,03128376208135E-02 
411	 3,53600338300133E-02 
412	 2,95603761942494E-02 
413	 3,19187832406201E-02 
414	 0,028771544351971 
415	 2,24199527253204E-02 
416	 2,54414245445636E-02 
417	 2,80059199757893E-02 
418	 2,72544547045422E-02 
419	 0,032599006064002 
420	 3,54612675918848E-02 
421	 2,46169251555777E-02 
422	 2,16337161750508E-02 
423	 2,71906809292534E-02 
424	 2,49760844618555E-02 
425	 2,24403834248756E-02 
426	 2,38896523624095E-02 
427	 2,64181238910688E-02 
428	 2,82132199524789E-02 
429	 2,69500006730458E-02 
430	 0,023847554347251 
431	 2,07515078071912E-02 
432	 2,31923695935969E-02 
433	 2,68554199423151E-02 
434	 2,78415831324383E-02 
435	 2,73704481702881E-02 
436	 2,66107560908591E-02 
437	 2,80912442087741E-02 
438	 2,91703614094636E-02 
439	 2,89562288636778E-02 
440	 2,90355973146053E-02 
441	 2,92217522055027E-02 
442	 2,91173826867163E-02 
443	 0,027917619298383 
444	 2,59900937797948E-02 
445	 2,49162733076595E-02 
446	 2,52612716417493E-02 
447	 2,70011683403204E-02 
448	 0,026974837272711 
449	 2,57701238262106E-02 
450	 2,51430800718098E-02 
451	 2,67965234856231E-02 
452	 3,01684923054292E-02 
453	 3,02546106906687E-02 
454	 2,89235138043101E-02 
455	 2,81118618082437E-02 
456	 2,68252666994174E-02 
457	 2,52171127099954E-02 
458	 2,37385882866382E-02 
459	 2,36843221435638E-02 
460	 2,51776103735235E-02 
461	 2,48514859776173E-02 
462	 2,48843170980752E-02 
463	 2,85693357076693E-02 
464	 2,96081018276427E-02 
465	 2,76018225089505E-02 
466	 2,68511364892716E-02 
467	 2,74535548901497E-02 
468	 2,91161263069371E-02 
469	 2,83699168857401E-02 
470	 2,65827737808277E-02 
471	 2,74256776545842E-02 
472	 2,85515065946991E-02 
473	 0,029496162894089 
474	 3,22974965994328E-02 
475	 3,28220009136157E-02 
476	 2,73852500986029E-02 
477	 2,60174481385547E-02 
478	 2,86307568557493E-02 
479	 2,89752442650927E-02 
480	 2,87615850725171E-02 
481	 2,87733940369326E-02 
482	 2,94922801485969E-02 
483	 3,06177050770954E-02 
484	 3,17119052243222E-02 
485	 0,031191329467214 
486	 2,94071528121622E-02 
487	 2,92838847782846E-02 
488	 2,96274299651919E-02 
489	 2,95900853214134E-02 
490	 3,08497813811624E-02 
491	 3,21477352960396E-02 
492	 2,98618906570826E-02 
493	 0,028889895324652 
494	 3,05394230120102E-02 
495	 0,031940004475264 
496	 3,17006773536863E-02 
497	 2,86247688171383E-02 
498	 2,73580523506325E-02 
499	 2,83338641142709E-02 
500	 2,91084765960466E-02 
501	 3,01445563189917E-02 
502	 3,14337189771182E-02 
503	 0,031504212417737 
504	 3,04765371694056E-02 
505	 2,87619434793148E-02 
506	 2,80175996974571E-02 
507	 2,86713575311161E-02 
508	 3,00440478059608E-02 
509	 3,05436453828388E-02 
510	 2,90287735264433E-02 
511	 2,99611497321119E-02 
512	 3,26047942267739E-02 
513	 0,032986455804232 
514	 3,24560320787101E-02 
515	 3,17930398445432E-02 
516	 3,22650785024099E-02 
517	 3,33188514162323E-02 
518	 3,40288917780056E-02 
519	 3,37068189727007E-02 
520	 3,26517107690987E-02 
521	 3,26758586668265E-02 
522	 3,27800686268036E-02 
523	 3,23164919992208E-02 
524	 3,25745840824283E-02 
525	 3,35229876344994E-02 
526	 3,48660371740376E-02 
527	 3,52374658438629E-02 
528	 3,44229420483006E-02 
529	 3,43733051398246E-02 
530	 3,44791803172692E-02 
531	 3,38896970746461E-02 
532	 3,41262324001432E-02 
533	 3,50228497125576E-02 
534	 3,49975642680936E-02 
535	 3,48264519001775E-02 
536	 3,49425674871803E-02 
537	 3,49086889536901E-02 
538	 3,48984655601057E-02 
539	 3,53469438215976E-02 
540	 3,56603794477122E-02 
541	 3,55617909708198E-02 
542	 3,45828538265356E-02 
543	 0,0342609587835 
544	 3,59678391106522E-02 
545	 3,65475964980432E-02 
546	 0,036004054022958 
547	 0,03629289812795 
548	 3,65122047222462E-02 
549	 0,03635460447824 
550	 3,67139574548437E-02 
551	 3,71020826103483E-02 
552	 3,66209030920346E-02 
553	 0,036227567247866 
554	 3,61715329805694E-02 
555	 3,60900572794247E-02 
556	 3,66039151250496E-02 
557	 3,80679480518259E-02 
558	 3,81512764932675E-02 
559	 3,73707326126337E-02 
560	 3,82203948755655E-02 
561	 3,86245459686132E-02 
562	 3,79419093262849E-02 
563	 3,75798301011248E-02 
564	 3,73657164806654E-02 
565	 3,68947816015431E-02 
566	 3,69518955356321E-02 
567	 3,75785066768533E-02 
568	 3,82401361258081E-02 
569	 3,86638967960672E-02 
570	 3,87254513520413E-02 
571	 3,92431678490191E-02 
572	 4,00663859338261E-02 
573	 4,07316903950095E-02 
574	 4,03082034981566E-02 
575	 0,039008039778677 
576	 3,99004038369494E-02 
577	 0,041263613224466 
578	 4,09730062257724E-02 
579	 4,20193457378009E-02 
580	 4,38037473238369E-02 
581	 4,23228974776488E-02 
582	 4,08612156620415E-02 
583	 4,13297641143388E-02 
584	 4,27798765472991E-02 
585	 4,42109681628585E-02 
586	 4,41097612313229E-02 
587	 4,42794199696914E-02 
588	 4,49394365809315E-02 
589	 4,43181834041108E-02 
590	 4,40656260194738E-02 
591	 0,045649025272992 
592	 4,62057297179674E-02 
593	 4,57520058695766E-02 
594	 4,59660018435164E-02 
595	 4,61116545373921E-02 
596	 4,59688566965345E-02 
597	 4,62582643643073E-02 
598	 4,65374814159178E-02 
599	 4,60349830880518E-02 
600	 4,58189257228372E-02 
601	 4,59837680317377E-02 
602	 4,55974962489214E-02 
603	 4,53986531958221E-02 
604	 4,58579949659776E-02 
605	 4,51609256571077E-02 
606	 4,39548256704449E-02 
607	 4,46148946274136E-02 
608	 4,49777615016592E-02 
609	 4,45870058005112E-02 
610	 4,59232029923642E-02 
611	 4,70604976154409E-02 
612	 4,54511434465852E-02 
613	 4,39856399927804E-02 
614	 0,043325391122124 
615	 0,042884085552664 
616	 0,043112911241184 
617	 4,41366983984612E-02 
618	 4,45620554858753E-02 
619	 4,44437781441627E-02 
620	 0,044322396283087 
621	 4,43269906706859E-02 
622	 4,44003489205897E-02 
623	 4,38695320195416E-02 
624	 4,32943324060215E-02 
625	 4,32976541681769E-02 
626	 4,40726250454911E-02 
627	 4,50789984148658E-02 
628	 4,46327639846638E-02 
629	 4,43301618146087E-02 
630	 4,49313224449045E-02 
631	 4,54965012979945E-02 
632	 4,58765336038763E-02 
633	 4,60421698656512E-02 
634	 4,57873096429556E-02 
635	 4,53971414162108E-02 
636	 4,61410413410828E-02 
637	 0,047268142711541 
638	 4,80617041368599E-02 
639	 4,82607237477584E-02 
640	 4,81359471975156E-02 
641	 4,85335255441594E-02 
642	 0,0488786376061 
643	 4,89684945850068E-02 
644	 4,90001154388712E-02 
645	 4,90247671841852E-02 
646	 4,90845557545135E-02 
647	 4,91867338035425E-02 
648	 4,93110670169728E-02 
649	 4,93845426013757E-02 
650	 4,94558581633571E-02 
651	 4,95221105884805E-02 
652	 4,92381496828664E-02 
653	 0,048829949971695 
654	 4,88859254708111E-02 
655	 4,87235594018284E-02 
656	 4,80719574750226E-02 
657	 4,66719669297641E-02 
658	 4,58639538914221E-02 
659	 4,69310642678464E-02 
660	 4,69268690266943E-02 
661	 4,57481095814712E-02 
662	 4,50295813340896E-02 
663	 4,45682289900449E-02 
664	 4,42620062982077E-02 
665	 4,38686179809974E-02 
666	 4,32404758663433E-02 
667	 4,21606618822541E-02 
668	 0,041862133691274 
669	 4,24706987573406E-02 
670	 4,29664037275476E-02 
671	 4,32476466171425E-02 
672	 4,32400422850428E-02 
673	 4,29254247073398E-02 
674	 4,24442917888743E-02 
675	 4,19909967859534E-02 
676	 4,20847778740677E-02 
677	 4,27510563348703E-02 
678	 0,042824095227407 
679	 4,28147420921412E-02 
680	 4,34328411726665E-02 
681	 4,36881361459537E-02 
682	 4,36232440179827E-02 
683	 4,41929710455873E-02 
684	 0,044527919125406 
685	 4,42461159409383E-02 
686	 0,044610847553243 
687	 4,54834162606825E-02 
688	 4,62821790605423E-02 
689	 4,74736686123884E-02 
690	 4,90289396130402E-02 
691	 5,02794964654388E-02 
692	 5,15326637675618E-02 
693	 5,31191802017032E-02 
694	 5,53702186044923E-02 
695	 5,80466741734132E-02 
696	 6,03588102225973E-02 
697	 6,29563384740443E-02 
698	 6,60338170746934E-02 
699	 6,90525601355209E-02 
700	 7,23262573159992E-02 
701	 7,63101571571029E-02 
702	 8,02197078695242E-02 
703	 8,37542253005973E-02 
704	 8,66641734181258E-02 
705	 8,97658772882725E-02 
706	 9,35103223678063E-02 
707	 9,68952489045867E-02 
708	 9,99766803852174E-02 
709	 0,103169639541534 
710	 0,106025033389857 
711	 0,108439932731084 
712	 0,110651579010694 
713	 0,112654697207159 
714	 0,11446411447463 
715	 0,116722104052794 
716	 0,11905717766351 
717	 0,120157608089567 
718	 0,121238756293854 
719	 0,122802448476645 
720	 0,124544182256046 
721	 0,12608071624267 
722	 0,126975871783604 
723	 0,12774504212764 
724	 0,12868691853115 
725	 0,130371475967018 
726	 0,131604827157073 
727	 0,131780968467174 
728	 0,132508146570267 
729	 0,133525547186464 
730	 0,133985022462556 
731	 0,134077139420744 
732	 0,134066510465828 
733	 0,134823335038257 
734	 0,135723324356446 
735	 0,136183812558875 
736	 0,136326492330631 
737	 0,136434393006106 
738	 0,137188630540954 
739	 0,137820054855453 
740	 0,138036245059394 
741	 0,138026194449857 
742	 0,138002053428176 
743	 0,138190551399283 
744	 0,138583335037421 
745	 0,139097383161693 
746	 0,139568088054425 
747	 0,139667415636345 
748	 0,13933905427755 
749	 0,139556902269707 
750	 0,140094042651299 
751	 0,14042234903959 
752	 0,140600188942017 
753	 0,140601121885732 
754	 0,140304622471606 
755	 0,140170848103863 
756	 0,140498102302383 
757	 0,140661054776576 
758	 0,140784786712841 
759	 0,141366027628221 
760	 0,141678740057987 
761	 0,141616292028044 
762	 0,141957731358184 
763	 0,142142400670527 
764	 0,141666766561663 
765	 0,141575973590128 
766	 0,141873770603179 
767	 0,142015695954063 
768	 0,142181373859662 
769	 0,142382012857855 
770	 0,142328505537828 
771	 0,142431585846021 
772	 0,143169839457695 
773	 0,143313604322951 
774	 0,142942056590817 
775	 0,14319014426991 
776	 0,143568281224114 
777	 0,143787136245578 
778	 0,14365634773819 
779	 0,143418615518378 
780	 0,143453751150534 
781	 0,143698962500848 
782	 0,144017420169703 
783	 0,143966177458848 
784	 0,143956026396595 
785	 0,144223723754376 
786	 0,144293898321393 
787	 0,144306255254646 
788	 0,144643010667867 
789	 0,144749205374325 
790	 0,144571338946931 
791	 0,144617393836454 
792	 0,144738645270043 
793	 0,144818630239806 
794	 0,145062257349256 
795	 0,145335276586815 
796	 0,14528595946594 
797	 0,145271668698098 
798	 0,145400599454463 
799	 0,145567370488166 
800	 0,14569149719626 
801	 0,145704696496153 
802	 0,145673059975606 
803	 0,14565367734466 
804	 0,145723900830893 
805	 0,145958698737427 
806	 0,146301989370725 
807	 0,146312465810971 
808	 0,14620612197932 
809	 0,146254384343998 
810	 0,146527345493993 
811	 0,146873032943617 
812	 0,146844084722893 
813	 0,146694594716022 
814	 0,146584476405889 
815	 0,146764322049124 
816	 0,146976882334201 
817	 0,146904147667467 
818	 0,147176477916546 
819	 0,147654703673323 
820	 0,147471541698209 
821	 0,14744024008449 
822	 0,147841751116289 
823	 0,147774461971381 
824	 0,147667243455471 
825	 0,148165695227261 
826	 0,148651249698227 
827	 0,148849715751214 
828	 0,148387576054287 
829	 0,148048741945679 
830	 0,148194836933772 
831	 0,148126440882019 
832	 0,148022992548407 
833	 0,148222927015943 
834	 0,148299825586945 
835	 0,148232351174423 
836	 0,1482932087642 
837	 0,148487722514503 
838	 0,148761175700139 
839	 0,148689368866827 
840	 0,148553180687661 
841	 0,148809265497858 
842	 0,14887216818468 
843	 0,148791272537625 
844	 0,149298180859396 
845	 0,149414298216516 
846	 0,148835154781173 
847	 0,149563381653618 
848	 0,150376995468476 
849	 0,149286843692471 
850	 0,148975674877861 
851	 0,149663193282318 
852	 0,149782020206963 
853	 0,149472154857547 
854	 0,148923829829834 
855	 0,149028529201659 
856	 0,149390697584547 
857	 0,149327606554066 
858	 0,149644554414233 
859	 0,150184608632676 
860	 0,149865171677601 
861	 0,149447370979955 
862	 0,149365113587216 
863	 0,149582708610321 
864	 0,149972559318486 
865	 0,1503583065002 
866	 0,150227681745725 
867	 0,149808941719187 
868	 0,150228722329129 
869	 0,150481469759518 
870	 0,150150587344395 
871	 0,14975591426428 
872	 0,149800091178777 
873	 0,150754169177135 
874	 0,150542147274395 
875	 0,149527196868166 
876	 0,150165843627702 
877	 0,150775078140741 
878	 0,150685461269863 
879	 0,150360868189384 
880	 0,150105227987206 
881	 0,150204330152457 
882	 0,150375627778276 
883	 0,150578289102366 
884	 0,150871054285098 
885	 0,151163836200313 
886	 0,151432247634493 
887	 0,151831744661448 
888	 0,15192859239368 
889	 0,151385680434523 
890	 0,15122680556091 
891	 0,15140576165464 
892	 0,151344494500502 
893	 0,151624319335009 
894	 0,152148155869567 
895	 0,151658013664137 
896	 0,151376931334261 
897	 0,152130842283333 
898	 0,151880321444361 
899	 0,15112475391069 
900	 0,151294644449199 
901	 0,151494444073256 
902	 0,151650405258633 
903	 0,152496705117379 
904	 0,152976457451893 
905	 0,152505902335749 
906	 0,151996156376579 
907	 0,151908260220279 
908	 0,152688038719257 
909	 0,153070511762696 
910	 0,152874476510162 
911	 0,152542207587613 
912	 0,152847551720751 
913	 0,153840921532019 
914	 0,153306779124292 
915	 0,152637870384688 
916	 0,153453161359144 
917	 0,152545681685925 
918	 0,150794224350912 
919	 0,152106786047804 
920	 0,152882056425781 
921	 0,152290564962357 
922	 0,152788478832739 
923	 0,153221858448406 
924	 0,152691839153586 
925	 0,153074011243312 
926	 0,153635728514309 
927	 0,15255128865275 
928	 0,151605911183987 
929	 0,151318267155735 
930	 0,151411316691909 
931	 0,152145591358054 
932	 0,153416630643778 
933	 0,15381549474319 
934	 0,1531654794695 
935	 0,151574207346236 
936	 0,151941585789539 
937	 0,153727153891174 
938	 0,15347153981804 
939	 0,152865982416244 
940	 0,15240057706227 
941	 0,151299503606051 
942	 0,150526171812311 
943	 0,15095675380782 
944	 0,152253246926881 
945	 0,153559891006767 
946	 0,153501362349704 
947	 0,153039456953453 
948	 0,152436208706895 
949	 0,15140953548315 
950	 0,15116096174753 
951	 0,151993882843778 
952	 0,150975584278054 
953	 0,149648322732378 
954	 0,150170935579193 
955	 0,150880825992544 
956	 0,151050968648981 
957	 0,149670187465765 
958	 0,148880679552881 
959	 0,149340947682525 
960	 0,150354469369146 
961	 0,150031139700335 
962	 0,147659861413988 
963	 0,150005508305808 
964	 0,153319615081009 
965	 0,150630493284752 
966	 0,148592751571713 
967	 0,148719477946226 
968	 0,150421156181312 
969	 0,151070250137572 
970	 0,149750023901954 
971	 0,148709776454285 
972	 0,148242476641427 
973	 0,148524142174097 
974	 0,150154659986397 
975	 0,151581181825336 
976	 0,149988756545506 
977	 0,149224938887413 
978	 0,150162766302184 
979	 0,151691580425946 
980	 0,153468898133802 
981	 0,155024715548428 
982	 0,155685471164727 
983	 0,154670005477444 
984	 0,151602559851182 
985	 0,150563356338275 
986	 0,150932476592975 
987	 0,14975848782667 
988	 0,151184574147697 
989	 0,154710488623953 
990	 0,154474478404384 
991	 0,153855835154526 
992	 0,154362548596383 
993	 0,153491038104975 
994	 0,153112168995285 
995	 0,155109168996847 
996	 0,156046538107216 
997	 0,155708854294434 
998	 0,155033638448897 
999	 0,153288605261802 
1000	 0,151827173286011 
1001	 0,155785397220758 
1002	 0,159370191584885 
1003	 0,159719014156676 
1004	 0,159581251317152 
1005	 0,158084530825417 
1006	 0,154696996820093 
1007	 0,154874571368065 
1008	 0,156793320694312 
1009	 0,155494085186107 
1010	 0,155452014875558 
1011	 0,157116144081475 
1012	 0,158326393914333 
1013	 0,15766425393384 
1014	 0,155681053455391 
1015	 0,159235685992191 
1016	 0,161265359278531 
1017	 0,156737412895744 
1018	 0,159000110469625 
1019	 0,163470851483632 
1020	 0,160720788249009 
1021	 0,157008169461815 
1022	 0,154928884041959 
1023	 0,157652587150003 
1024	 0,158121037207549 
1025	 0,15568968959287 
1026	 0,159375740172367 
1027	 0,164081471105861 
1028	 0,16578755563014 
1029	 0,162262403068022 
1030	 0,158004273640903 
1031	 0,158576559347195 
1032	 0,162027686138119 
1033	 0,16650871806514 
1034	 0,169151225534297 
1035	 0,167607279996979 
1036	 0,161898893626491 
1037	 0,153889248011409 
1038	 0,152488353465296 
1039	 0,159990060377549 
1040	 0,164643892537574 
1041	 0,166525473248106 
1042	 0,166540209903743 
1043	 0,168366622268057 
1044	 0,170904667324415 
1045	 0,17157414171899 
1046	 0,159850044818567 
1047	 0,146248077846045 
1048	 0,161828479302277 
1049	 0,166981688909715 
1050	 0,156938694462427 
1051	 0,161790899645279 
1052	 0,170439339124639 
1053	 0,174553495642574 
1054	 0,161015479388582 
1055	 0,152985476697371 
1056	 0,168781012505354 
1057	 0,174653603218183 
1058	 0,174672743296527 
1059	 0,180738589334279 
1060	 0,179509925635387 
1061	 0,173867872567025 
1062	 0,176868278227787 
1063	 0,178632050475276 
1064	 0,17582891701531 
1065	 0,166326096623079 
1066	 0,163642890880761 
1067	 0,171869481740812 
1068	 0,177346076728339 
1069	 0,173483570506498 
1070	 0,159323416530298 
1071	 0,1601024717543 
1072	 0,168527628237941 
1073	 0,170992148975569 
1074	 0,174528248076569 
1075	 0,175432731646933 
