Wavelength	PENFOUL00650.asd
325	 0,110636228539671 
326	 0,1063960110187 
327	 0,185560306341457 
328	 0,29550922087876 
329	 0,193479689674726 
330	 8,47949585122759E-02 
331	 0,151216678819037 
332	 0,228896647000248 
333	 0,305369605469306 
334	 0,242086296864916 
335	 0,17513395990262 
336	 0,144047990028046 
337	 0,100846545419688 
338	 7,09823306283258E-02 
339	 8,43468758908089E-02 
340	 0,14182362030209 
341	 0,196189375175058 
342	 0,162336069788845 
343	 0,129683706580695 
344	 0,121831198898027 
345	 9,07417351602866E-02 
346	 5,33010909774982E-02 
347	 3,15372357826532E-02 
348	 6,90979792824078E-02 
349	 0,120194479003849 
350	 4,67509963297403E-02 
351	 5,33139475166202E-03 
352	 4,41605189735388E-02 
353	 5,35884266053226E-02 
354	 4,63063238007036E-02 
355	 4,78635257743132E-02 
356	 4,95965844806148E-02 
357	 5,06284877693716E-02 
358	 5,38879460180511E-02 
359	 4,64042696901855E-02 
360	 2,64299184595537E-02 
361	 2,42637713744037E-02 
362	 0,039236634500875 
363	 6,25632261255921E-02 
364	 7,02944855178766E-02 
365	 6,33545163235393E-02 
366	 6,33721360403141E-02 
367	 6,32553466784561E-02 
368	 5,79633501598763E-02 
369	 4,35650024715769E-02 
370	 2,53083107806171E-02 
371	 1,33430256193835E-02 
372	 7,67456510151669E-03 
373	 1,34129225523743E-02 
374	 5,18838178093857E-02 
375	 7,23847563922119E-02 
376	 4,72517629888318E-02 
377	 3,97146336116386E-02 
378	 4,94777208442137E-02 
379	 5,13950042629965E-02 
380	 4,68540179147716E-02 
381	 3,78293854719568E-02 
382	 3,47421689614843E-02 
383	 3,62933742574495E-02 
384	 4,02258728877683E-02 
385	 3,68987380745991E-02 
386	 2,79356313205139E-02 
387	 2,07709839351157E-02 
388	 2,23978840149556E-02 
389	 3,35201154999274E-02 
390	 0,04243838052691 
391	 4,68917591406799E-02 
392	 4,52495596841089E-02 
393	 3,72788973379685E-02 
394	 2,86995602699081E-02 
395	 0,035656090964389 
396	 4,08353135731765E-02 
397	 3,49001870595993E-02 
398	 2,07826665341927E-02 
399	 1,12810024862859E-02 
400	 2,39812769386859E-02 
401	 2,96028887176072E-02 
402	 0,025634191662862 
403	 3,33238423827779E-02 
404	 3,86830814521435E-02 
405	 3,31554789296902E-02 
406	 2,55759662942454E-02 
407	 1,92964553444403E-02 
408	 1,84078415029077E-02 
409	 2,11660612131984E-02 
410	 0,024935274135934 
411	 2,17156242382406E-02 
412	 1,86514658870461E-02 
413	 2,23327506475627E-02 
414	 2,24785438168592E-02 
415	 1,96847138344625E-02 
416	 2,05871607216899E-02 
417	 2,04759943120117E-02 
418	 1,88727634760086E-02 
419	 2,53709694630576E-02 
420	 2,99358984573987E-02 
421	 1,96429384046817E-02 
422	 1,59772212561676E-02 
423	 2,07419500206646E-02 
424	 0,021859386619336 
425	 2,07244665679779E-02 
426	 1,84676997088872E-02 
427	 1,73733458148531E-02 
428	 1,70441770317096E-02 
429	 1,61953933420979E-02 
430	 0,014302118080389 
431	 1,21998952984238E-02 
432	 1,38732190744006E-02 
433	 1,72527747470605E-02 
434	 2,01532529514898E-02 
435	 1,83986854678293E-02 
436	 1,45511215445689E-02 
437	 1,70487037683761E-02 
438	 1,97427200633552E-02 
439	 2,03664604997648E-02 
440	 2,12479147832661E-02 
441	 2,17099657597609E-02 
442	 2,07116767917461E-02 
443	 1,89098977769759E-02 
444	 0,016722898569004 
445	 1,42410516524361E-02 
446	 1,45638075107609E-02 
447	 1,88100341707664E-02 
448	 1,98193004061352E-02 
449	 1,77020544476904E-02 
450	 0,014122215394611 
451	 1,56352721859919E-02 
452	 0,022323102441612 
453	 2,47078846711275E-02 
454	 2,32177550979597E-02 
455	 1,89851185799921E-02 
456	 1,61697846934265E-02 
457	 0,015034211663945 
458	 0,013319776081722 
459	 1,31462333480518E-02 
460	 1,49072105914734E-02 
461	 1,52597749338775E-02 
462	 1,57664554303518E-02 
463	 1,89423071942425E-02 
464	 1,87136648432558E-02 
465	 1,53765139429779E-02 
466	 1,52268045233167E-02 
467	 1,69750975803381E-02 
468	 0,01931322266997 
469	 1,86326834203087E-02 
470	 1,63959211245858E-02 
471	 1,63899212234178E-02 
472	 1,81572734659407E-02 
473	 0,020429210156601 
474	 1,77535244755385E-02 
475	 1,47098774080143E-02 
476	 1,58733083617642E-02 
477	 1,53749106839003E-02 
478	 0,013565339605148 
479	 1,49904018209246E-02 
480	 1,49722492783922E-02 
481	 1,23453356231207E-02 
482	 0,015197773362632 
483	 1,90029535889026E-02 
484	 1,59333174040364E-02 
485	 1,58688560196347E-02 
486	 1,96375893904766E-02 
487	 0,02011385967033 
488	 1,92282550601264E-02 
489	 1,85610917342841E-02 
490	 1,80023561783909E-02 
491	 1,72953526511994E-02 
492	 1,55389715338635E-02 
493	 1,47676836042933E-02 
494	 1,54087732473586E-02 
495	 1,55899608658024E-02 
496	 1,48297858711411E-02 
497	 1,28199042710504E-02 
498	 1,31599602978463E-02 
499	 1,55915026516092E-02 
500	 1,68343566310333E-02 
501	 1,71476964962497E-02 
502	 1,66624104701636E-02 
503	 1,56531983762574E-02 
504	 1,45825492337419E-02 
505	 1,40402795733678E-02 
506	 1,40291790596257E-02 
507	 1,45427120386473E-02 
508	 0,015688841854333 
509	 1,60605987099928E-02 
510	 1,46155540377996E-02 
511	 1,53468740166065E-02 
512	 1,71034488686782E-02 
513	 1,46520259412528E-02 
514	 0,013252197653148 
515	 1,47977121267776E-02 
516	 1,55901048105441E-02 
517	 0,015641949068227 
518	 1,55375901296704E-02 
519	 1,47498085293921E-02 
520	 1,37717614197688E-02 
521	 1,46885511027932E-02 
522	 1,56517610949322E-02 
523	 1,53720392927842E-02 
524	 1,54927640626597E-02 
525	 1,58770194285478E-02 
526	 1,56615493192537E-02 
527	 1,52564217777593E-02 
528	 1,49607360428565E-02 
529	 1,56709533222301E-02 
530	 0,016070669231787 
531	 1,46458424781351E-02 
532	 0,01434009040234 
533	 1,52417968992374E-02 
534	 1,53695200278758E-02 
535	 1,54687775431152E-02 
536	 1,58615622297123E-02 
537	 1,55466152673325E-02 
538	 1,49342764592484E-02 
539	 1,49924240172687E-02 
540	 1,51669171310141E-02 
541	 1,51982508920103E-02 
542	 1,45910650241438E-02 
543	 1,43819691649352E-02 
544	 1,54962143079596E-02 
545	 1,55309760083215E-02 
546	 1,46187269467809E-02 
547	 1,45872532536782E-02 
548	 1,44028216442696E-02 
549	 1,37939729899653E-02 
550	 1,43707460054907E-02 
551	 1,52497456835513E-02 
552	 1,48112031823737E-02 
553	 1,45595307646164E-02 
554	 1,47345023910314E-02 
555	 0,014444371503284 
556	 1,43311347155918E-02 
557	 1,48789547122702E-02 
558	 1,50362209031009E-02 
559	 1,48635564503973E-02 
560	 1,50203052573283E-02 
561	 1,51524206695464E-02 
562	 1,51117820184424E-02 
563	 1,49382094654667E-02 
564	 1,44676619464218E-02 
565	 1,34792904501119E-02 
566	 1,31418814129912E-02 
567	 1,36915627449398E-02 
568	 1,48634143837046E-02 
569	 1,55316566237183E-02 
570	 1,49703473448807E-02 
571	 1,43232763035421E-02 
572	 1,40709261212544E-02 
573	 1,48298907007337E-02 
574	 1,53992810082661E-02 
575	 1,54908696839201E-02 
576	 1,62636933185915E-02 
577	 1,67824644031486E-02 
578	 0,015971257953648 
579	 1,58414102742807E-02 
580	 0,016553604630951 
581	 1,71348002225508E-02 
582	 1,72191871243189E-02 
583	 0,016706806026228 
584	 1,67925706078357E-02 
585	 1,72488514052308E-02 
586	 1,73793309515707E-02 
587	 1,75322598944974E-02 
588	 1,77496688612986E-02 
589	 1,77719680128758E-02 
590	 1,79801695572011E-02 
591	 1,86539065898891E-02 
592	 0,018111164153122 
593	 1,69289354319249E-02 
594	 0,017635024905479 
595	 1,81711792785038E-02 
596	 1,77121905907816E-02 
597	 1,75554349766833E-02 
598	 1,76305105990187E-02 
599	 1,76285927802349E-02 
600	 1,76212186349126E-02 
601	 1,75936074039167E-02 
602	 1,73892410566281E-02 
603	 1,75013174054511E-02 
604	 1,81932055101491E-02 
605	 1,77378631121936E-02 
606	 0,016719027016944 
607	 1,74239956651578E-02 
608	 1,73210113442409E-02 
609	 1,60315758710285E-02 
610	 1,72684518397528E-02 
611	 1,87202605748686E-02 
612	 1,72257705935342E-02 
613	 1,59471059853887E-02 
614	 1,55839056513519E-02 
615	 1,55707404048533E-02 
616	 1,60884014012617E-02 
617	 1,70472749625591E-02 
618	 0,016807175068905 
619	 1,59862456355325E-02 
620	 0,016300569299167 
621	 1,64841473149924E-02 
622	 1,62167922822513E-02 
623	 1,60338294916557E-02 
624	 0,015656222315449 
625	 1,48334325897044E-02 
626	 1,53357063137576E-02 
627	 1,65781951436999E-02 
628	 0,015647006299032 
629	 1,51133025079794E-02 
630	 1,61298834444491E-02 
631	 1,67893916523875E-02 
632	 1,69974792395836E-02 
633	 1,69927671937458E-02 
634	 1,68167910634071E-02 
635	 1,66527788612398E-02 
636	 1,69962393642603E-02 
637	 1,76425696310885E-02 
638	 1,83261013254916E-02 
639	 1,80775929137526E-02 
640	 1,73895065760858E-02 
641	 1,79512208882034E-02 
642	 1,86608002605765E-02 
643	 1,89921035535125E-02 
644	 1,85906575036469E-02 
645	 1,81338707819796E-02 
646	 1,85307514954196E-02 
647	 1,90727611622082E-02 
648	 1,93818916972597E-02 
649	 1,87864257285673E-02 
650	 1,84578514437697E-02 
651	 1,90591406406365E-02 
652	 1,88565338286649E-02 
653	 1,82648007685533E-02 
654	 1,87146898133926E-02 
655	 1,87434047664588E-02 
656	 1,80100884919742E-02 
657	 1,72465346070994E-02 
658	 1,70836032892992E-02 
659	 1,80320538275989E-02 
660	 1,77592580468077E-02 
661	 1,63891709889016E-02 
662	 1,57235665779051E-02 
663	 1,56740843057824E-02 
664	 1,60848233749519E-02 
665	 1,59314498328814E-02 
666	 1,52648191819931E-02 
667	 1,43308351169059E-02 
668	 1,42158915526206E-02 
669	 0,014942886076743 
670	 0,0151846904227 
671	 1,52792915897296E-02 
672	 1,55074696370992E-02 
673	 1,56740798287503E-02 
674	 1,56042489084873E-02 
675	 1,48131569563089E-02 
676	 1,46637723803352E-02 
677	 1,54472586519743E-02 
678	 1,55491493053956E-02 
679	 1,54227654801134E-02 
680	 1,57579078007675E-02 
681	 1,60208965813363E-02 
682	 1,60802367569467E-02 
683	 1,59155590733615E-02 
684	 1,57272259254285E-02 
685	 1,56793330640684E-02 
686	 1,59410381544785E-02 
687	 1,64220318817676E-02 
688	 1,69266434572587E-02 
689	 1,74285105313161E-02 
690	 1,79904636420854E-02 
691	 1,89832148147474E-02 
692	 1,99331982152334E-02 
693	 2,04820504695121E-02 
694	 2,19328218497411E-02 
695	 2,41403162149824E-02 
696	 2,60040281449037E-02 
697	 2,84197322352548E-02 
698	 3,16595027730843E-02 
699	 3,50186420648776E-02 
700	 0,038712741814764 
701	 4,30988314791363E-02 
702	 4,74419315493633E-02 
703	 5,17390201514386E-02 
704	 5,66837291006298E-02 
705	 6,18288804860006E-02 
706	 6,68906361169608E-02 
707	 7,20441674715673E-02 
708	 7,72716323077918E-02 
709	 8,25419558893777E-02 
710	 8,75514000253653E-02 
711	 9,22669076658795E-02 
712	 9,71270460548323E-02 
713	 0,101790709902502 
714	 0,105923490647249 
715	 0,109877087775609 
716	 0,113675112183198 
717	 0,117141116458851 
718	 0,120704939839862 
719	 0,124448296925949 
720	 0,127791120668566 
721	 0,13056265297975 
722	 0,132641501204653 
723	 0,134877760925994 
724	 0,137377265765367 
725	 0,139722196953588 
726	 0,141572472533697 
727	 0,14285011505562 
728	 0,144858187975655 
729	 0,146910130580551 
730	 0,147440965193322 
731	 0,148074175660224 
732	 0,149284359643687 
733	 0,150807545514831 
734	 0,15206107708053 
735	 0,152567272481144 
736	 0,152860688606063 
737	 0,153297023666729 
738	 0,154513162022375 
739	 0,155519211500564 
740	 0,155946773598037 
741	 0,156164139285135 
742	 0,156359765292873 
743	 0,156716661800723 
744	 0,157272088214994 
745	 0,157912815367897 
746	 0,15831349809517 
747	 0,158502044948911 
748	 0,158557624138763 
749	 0,158967923394632 
750	 0,159442360065095 
751	 0,159432591314324 
752	 0,159752934589168 
753	 0,160336968219413 
754	 0,160042510330422 
755	 0,15975650542873 
756	 0,16011860758563 
757	 0,160615340244422 
758	 0,161001618744055 
759	 0,160970663393301 
760	 0,160755320637183 
761	 0,160588580708666 
762	 0,161127594753127 
763	 0,161607021127363 
764	 0,161321740304977 
765	 0,161228911739791 
766	 0,161431003187806 
767	 0,161693328513443 
768	 0,16197914772788 
769	 0,162218650239537 
770	 0,162210200960424 
771	 0,162224909189063 
772	 0,16258544991935 
773	 0,162630442636077 
774	 0,162353678043289 
775	 0,162167542009094 
776	 0,162235972040874 
777	 0,162582074223421 
778	 0,162601675209204 
779	 0,162558820311824 
780	 0,162946229497125 
781	 0,163088316267715 
782	 0,162964908706245 
783	 0,163154546455394 
784	 0,163499448830549 
785	 0,163816912881794 
786	 0,163480772006396 
787	 0,163021466348395 
788	 0,163546863699293 
789	 0,1638599973405 
790	 0,163727714079355 
791	 0,163830055160637 
792	 0,163793353692139 
793	 0,163397369146903 
794	 0,163763872330665 
795	 0,164411768350059 
796	 0,163867834382357 
797	 0,163729935413347 
798	 0,164311289817892 
799	 0,164399580321122 
800	 0,164241825712779 
801	 0,164156753244021 
802	 0,164506178279435 
803	 0,165138458125549 
804	 0,165537263631142 
805	 0,165599227263771 
806	 0,165392872289069 
807	 0,165666191168426 
808	 0,165913339248959 
809	 0,1655710570988 
810	 0,165514633157617 
811	 0,165692612923882 
812	 0,165381735295418 
813	 0,165330961026004 
814	 0,165777323344878 
815	 0,166155181138146 
816	 0,166224723429414 
817	 0,165792954038041 
818	 0,165605030651457 
819	 0,165836248255476 
820	 0,166456726088579 
821	 0,166920372915804 
822	 0,166930372906705 
823	 0,166582658994844 
824	 0,166357696757502 
825	 0,166835005045906 
826	 0,16747605511405 
827	 0,167900821853502 
828	 0,167332391766826 
829	 0,167102502760139 
830	 0,167748087804229 
831	 0,167673808349321 
832	 0,167475141704131 
833	 0,168178611656654 
834	 0,168123904279741 
835	 0,167326721274884 
836	 0,167137130424636 
837	 0,167495162089525 
838	 0,168224146405793 
839	 0,168207394739794 
840	 0,167933857581031 
841	 0,168276541504523 
842	 0,168272627807045 
843	 0,168027260851699 
844	 0,168743190476075 
845	 0,169116241282747 
846	 0,168591762055953 
847	 0,168763945184756 
848	 0,169072935767289 
849	 0,168490702318379 
850	 0,168788286666999 
851	 0,169793417317928 
852	 0,169495628212441 
853	 0,168884098456147 
854	 0,168521787439977 
855	 0,168265989808719 
856	 0,168340324954596 
857	 0,169031520776492 
858	 0,169173249117668 
859	 0,16874802516393 
860	 0,168704318359411 
861	 0,168801713876663 
862	 0,168946280733658 
863	 0,169260304370467 
864	 0,169594449594458 
865	 0,169751116586031 
866	 0,170091268973738 
867	 0,170511758038875 
868	 0,170483682017865 
869	 0,170267129527893 
870	 0,169961377885589 
871	 0,169227038977479 
872	 0,168945115441815 
873	 0,170115953842636 
874	 0,170486090205609 
875	 0,170124024313565 
876	 0,17080284848565 
877	 0,171435628827772 
878	 0,171541998624393 
879	 0,171152691398929 
880	 0,170676618378905 
881	 0,170545576083779 
882	 0,170325197182696 
883	 0,170181154067077 
884	 0,170803425751481 
885	 0,171232311233443 
886	 0,171180515231588 
887	 0,171211140203437 
888	 0,171267181247988 
889	 0,171301985602335 
890	 0,171784237788183 
891	 0,172437563082237 
892	 0,172486111944585 
893	 0,172618973095466 
894	 0,172867006931115 
895	 0,172330314656965 
896	 0,171919897332771 
897	 0,17227351741499 
898	 0,172012224452007 
899	 0,171634405778159 
900	 0,172404930303521 
901	 0,172793584016257 
902	 0,172611467867247 
903	 0,17300326842544 
904	 0,173048338242323 
905	 0,172346438386048 
906	 0,172431099888929 
907	 0,172865533974232 
908	 0,17276648131822 
909	 0,172779230984884 
910	 0,173087044256589 
911	 0,173874180929242 
912	 0,174155751147936 
913	 0,173636835805059 
914	 0,173676641643084 
915	 0,173992978115507 
916	 0,174098792121566 
917	 0,173217459769277 
918	 0,172141855378847 
919	 0,173378137101574 
920	 0,173890789054989 
921	 0,172926222823412 
922	 0,172395754023689 
923	 0,172168775608635 
924	 0,172107730724294 
925	 0,172578095566585 
926	 0,17322908754783 
927	 0,173422172355091 
928	 0,172595184636314 
929	 0,171171435947453 
930	 0,171271823280475 
931	 0,17154856157046 
932	 0,171348410480215 
933	 0,172192175860828 
934	 0,172813366082529 
935	 0,171502131415343 
936	 0,170757123514172 
937	 0,170728526456121 
938	 0,170127114958511 
939	 0,169706198871435 
940	 0,169549479430593 
941	 0,168666857523138 
942	 0,167794971476843 
943	 0,16763637082123 
944	 0,16795748740433 
945	 0,168215355775344 
946	 0,167472819225112 
947	 0,167515474540675 
948	 0,168174278158461 
949	 0,166968211401634 
950	 0,165240194151541 
951	 0,163843441721407 
952	 0,162641227949743 
953	 0,161973262336338 
954	 0,162175458045677 
955	 0,162300614123625 
956	 0,161841446390585 
957	 0,159995397192025 
958	 0,159088563320801 
959	 0,159701408381534 
960	 0,160468766483152 
961	 0,159836574239352 
962	 0,157229929075914 
963	 0,158056842456587 
964	 0,159840367094758 
965	 0,157728550328543 
966	 0,156064383144966 
967	 0,155916242722909 
968	 0,157345145222495 
969	 0,157173929620021 
970	 0,154677959810692 
971	 0,154205528090651 
972	 0,154680678961846 
973	 0,155012005317538 
974	 0,157594243129664 
975	 0,160086697319552 
976	 0,157839101741681 
977	 0,156465753017666 
978	 0,157056612523691 
979	 0,157497819710255 
980	 0,157824883039813 
981	 0,157979493853959 
982	 0,157902457568498 
983	 0,158020929068729 
984	 0,158660017117559 
985	 0,158398080842537 
986	 0,157394450612377 
987	 0,156289617937345 
988	 0,158645041968853 
989	 0,163103400785101 
990	 0,160952104649175 
991	 0,159115599133126 
992	 0,160702586333641 
993	 0,160643488170252 
994	 0,159877539748132 
995	 0,159876362875336 
996	 0,161482185703532 
997	 0,163487757870582 
998	 0,163328524769864 
999	 0,162733463659506 
1000	 0,162678385111966 
1001	 0,164814741940045 
1002	 0,166140332046949 
1003	 0,165515499326673 
1004	 0,166177082646787 
1005	 0,166629805630393 
1006	 0,165468170880446 
1007	 0,166434195936364 
1008	 0,167561228264162 
1009	 0,164255820311443 
1010	 0,165718414809331 
1011	 0,170860339526795 
1012	 0,167437893635548 
1013	 0,16557434348597 
1014	 0,16869110565707 
1015	 0,169911028968502 
1016	 0,169931052340542 
1017	 0,169787398268754 
1018	 0,170833029452489 
1019	 0,171811487246413 
1020	 0,170644391241049 
1021	 0,171128741581455 
1022	 0,172683753787502 
1023	 0,170898190237098 
1024	 0,170011357198992 
1025	 0,171407058962219 
1026	 0,174418397650512 
1027	 0,176074171328585 
1028	 0,175100339025038 
1029	 0,177426158589034 
1030	 0,177752015833231 
1031	 0,170307955635332 
1032	 0,17154265106014 
1033	 0,179261826299404 
1034	 0,182244128580817 
1035	 0,18482848394215 
1036	 0,186208185598413 
1037	 0,180133586595006 
1038	 0,173805677668925 
1039	 0,171875394386289 
1040	 0,177143064811043 
1041	 0,183939239090832 
1042	 0,187257785193861 
1043	 0,18895262377741 
1044	 0,190691357096506 
1045	 0,194209122451903 
1046	 0,191100069426125 
1047	 0,184851591359926 
1048	 0,188704692993205 
1049	 0,18690975570194 
1050	 0,178580371282896 
1051	 0,179638706042367 
1052	 0,182264445141364 
1053	 0,182264600557326 
1054	 0,179858410385364 
1055	 0,179520836407327 
1056	 0,184694690546133 
1057	 0,189528733389503 
1058	 0,192209803641486 
1059	 0,191929577568878 
1060	 0,190613486554446 
1061	 0,192209144292036 
1062	 0,204645064203231 
1063	 0,207234913721724 
1064	 0,198006776907153 
1065	 0,193992318041694 
1066	 0,193093430984529 
1067	 0,19409139872687 
1068	 0,194685759820226 
1069	 0,191599995430434 
1070	 0,183714918940701 
1071	 0,18011151943103 
1072	 0,18151496652241 
1073	 0,186763007984911 
1074	 0,193886142876311 
1075	 0,200877002804451 
