Wavelength	PENFOUL00535.asd
325	 0,024828136137926 
326	 6,29701488583991E-02 
327	 3,41551182137045E-02 
328	-0,086361858879104 
329	-8,72532089282953E-02 
330	 2,06557746348705E-02 
331	 0,130361975851799 
332	 0,182860302828737 
333	 0,193903550120613 
334	 9,20458775614495E-02 
335	-5,63537499401267E-03 
336	-5,34174716941934E-02 
337	-3,48962837075454E-02 
338	 1,75999135632397E-02 
339	 5,96824987443837E-02 
340	 8,60425760667667E-02 
341	 9,54976576616159E-02 
342	 8,52977708392119E-02 
343	 5,00066783822077E-02 
344	-1,92026540339441E-03 
345	-5,37885814562356E-03 
346	 0,010504959583945 
347	 9,86270723187809E-03 
348	 7,17926627898629E-03 
349	 4,7072932490922E-04 
350	-2,53296805769569E-02 
351	-2,15956463375328E-02 
352	 2,65560663351519E-02 
353	 7,18428985047396E-02 
354	 7,71201947853104E-02 
355	 2,32686158909986E-02 
356	 1,21948828820755E-02 
357	 4,54278514237819E-02 
358	 5,76032976463471E-02 
359	 4,60994470335927E-02 
360	 1,62967251638973E-02 
361	 1,42875960641444E-02 
362	 3,83009276168563E-02 
363	 7,38202617728717E-02 
364	 7,67158502849075E-02 
365	 4,81805450929704E-02 
366	 2,55492111618509E-02 
367	 0,025884439485286 
368	 4,97288575628721E-02 
369	 1,80108749382106E-02 
370	-2,15087138965625E-02 
371	 3,82437151784297E-02 
372	 4,13209284295198E-02 
373	-2,15292593254838E-02 
374	 2,30937420884255E-02 
375	 6,09077730158542E-02 
376	 0,018996015331006 
377	 1,40992760188166E-02 
378	 4,11252467710268E-02 
379	 5,01796413714896E-02 
380	 5,07061296817555E-02 
381	 4,55519967776096E-02 
382	 4,49892127169757E-02 
383	 4,44614294209158E-02 
384	 3,86791942449029E-02 
385	 1,45416743639999E-02 
386	-1,12078979171868E-02 
387	 8,2282114669438E-03 
388	 2,85283956774061E-02 
389	 3,15925517551827E-02 
390	 2,80231782555336E-02 
391	 2,17840633202628E-02 
392	 1,68556947521921E-02 
393	 2,33916274115875E-02 
394	 3,36550814255958E-02 
395	 1,87087543023442E-02 
396	 2,16455497930292E-03 
397	-1,43766994886394E-03 
398	 1,36797298706079E-02 
399	 3,10234618999417E-02 
400	 2,67392317212696E-02 
401	 0,020338823085272 
402	 0,018226977872628 
403	 2,46088246259981E-02 
404	 3,14644964118893E-02 
405	 3,31780339267498E-02 
406	 2,73751334971005E-02 
407	 2,01434231454982E-02 
408	 2,56293070500308E-02 
409	 2,48764069925084E-02 
410	 0,016142229003027 
411	 1,74707098704618E-02 
412	 2,11885342951082E-02 
413	 1,93822036999135E-02 
414	 1,24937221141215E-02 
415	 6,4238905997611E-03 
416	 0,017677265435113 
417	 2,17720928656225E-02 
418	 1,27065012822065E-02 
419	 1,89866191465079E-02 
420	 2,78138493988917E-02 
421	 2,09524607834104E-02 
422	 1,68232532775449E-02 
423	 1,76056486841245E-02 
424	 1,50866849712486E-02 
425	 1,33146250476248E-02 
426	 1,45464341815336E-02 
427	 1,69175202007095E-02 
428	 1,87994944359574E-02 
429	 1,78083767115513E-02 
430	 1,71204402515211E-02 
431	 1,79297660295473E-02 
432	 2,13952995656479E-02 
433	 2,20531886343356E-02 
434	 1,58370862197109E-02 
435	 1,37582373598517E-02 
436	 0,017016690147241 
437	 2,39598966423845E-02 
438	 2,69818292758975E-02 
439	 0,023531943866821 
440	 2,08712063852277E-02 
441	 1,80700438589778E-02 
442	 1,31137983411287E-02 
443	 0,012504559670075 
444	 1,65330569794578E-02 
445	 2,12750785071487E-02 
446	 0,023254654561849 
447	 2,06261472415352E-02 
448	 1,77664927016075E-02 
449	 1,61151725218518E-02 
450	 1,70248566665196E-02 
451	 1,81451814233267E-02 
452	 1,89660549434237E-02 
453	 2,13393371892615E-02 
454	 2,29125720118285E-02 
455	 2,14488494336442E-02 
456	 1,70045601467054E-02 
457	 1,17462921902296E-02 
458	 1,03802072286876E-02 
459	 1,31587357097713E-02 
460	 1,87502992069022E-02 
461	 1,81526251653709E-02 
462	 1,62695977934589E-02 
463	 0,020725480202844 
464	 2,24072602362026E-02 
465	 2,01563602235227E-02 
466	 1,78874883769895E-02 
467	 1,73123968940414E-02 
468	 0,01919835372827 
469	 1,94785185804385E-02 
470	 1,85707799422773E-02 
471	 0,01849575493233 
472	 1,91335741562341E-02 
473	 0,02008462917146 
474	 1,98747947846911E-02 
475	 1,77291351726563E-02 
476	 1,32886568594318E-02 
477	 1,30998076060031E-02 
478	 1,64592583214506E-02 
479	 1,77989374426114E-02 
480	 1,75033055133215E-02 
481	 1,61364189649911E-02 
482	 1,73941344977547E-02 
483	 1,90477454128898E-02 
484	 1,71937802493035E-02 
485	 1,76249429855998E-02 
486	 2,04785416661677E-02 
487	 2,03304065920819E-02 
488	 1,92493349199859E-02 
489	 1,88876120587422E-02 
490	 1,86171101437973E-02 
491	 1,86093176482589E-02 
492	 1,96795004826634E-02 
493	 1,90886053265169E-02 
494	 0,016806561151123 
495	 0,018493597636281 
496	 2,03306355209725E-02 
497	 1,76820951885688E-02 
498	 1,63093081687925E-02 
499	 1,70039163481747E-02 
500	 1,80736466522985E-02 
501	 1,83713653027695E-02 
502	 1,73827811544934E-02 
503	 1,71228076002537E-02 
504	 1,70722582479565E-02 
505	 1,58054778401745E-02 
506	 1,46471313267369E-02 
507	 1,45098854158844E-02 
508	 1,77354768787764E-02 
509	 1,95162333133835E-02 
510	 1,59513805470594E-02 
511	 1,58691097785869E-02 
512	 1,85197225882186E-02 
513	 1,73545281483702E-02 
514	 1,63507431924438E-02 
515	 1,70306488637679E-02 
516	 0,017743366462322 
517	 1,82401734060878E-02 
518	 1,84251327355756E-02 
519	 1,82120467895044E-02 
520	 1,78742511489542E-02 
521	 1,85763844745755E-02 
522	 1,85794206112658E-02 
523	 0,016860760958952 
524	 1,66737886579906E-02 
525	 0,017641941407717 
526	 1,77043214494862E-02 
527	 1,80229556176594E-02 
528	 1,87407999942601E-02 
529	 1,88563899950503E-02 
530	 1,83520536353249E-02 
531	 1,73145770789853E-02 
532	 1,68246092433427E-02 
533	 1,70468545001165E-02 
534	 1,76151311683729E-02 
535	 1,79367316403371E-02 
536	 1,77233313007553E-02 
537	 1,79489795500066E-02 
538	 1,82914348929335E-02 
539	 1,79274981479708E-02 
540	 0,017439284983049 
541	 1,69840180806367E-02 
542	 1,62360276639584E-02 
543	 1,60385092301529E-02 
544	 1,71440610207627E-02 
545	 1,80601830597497E-02 
546	 1,82899995639332E-02 
547	 0,01741216281336 
548	 1,65476454204382E-02 
549	 0,016428330090743 
550	 1,76607980803304E-02 
551	 1,90853003998295E-02 
552	 1,88822971753482E-02 
553	 1,82219048713526E-02 
554	 1,75854498978307E-02 
555	 1,73602538542664E-02 
556	 1,75694880146531E-02 
557	 1,81467131542012E-02 
558	 1,82012129763593E-02 
559	 1,78508747847559E-02 
560	 1,77929929087275E-02 
561	 1,79884571223467E-02 
562	 1,83589243029127E-02 
563	 1,84558245716678E-02 
564	 1,82046924415397E-02 
565	 1,75718247978805E-02 
566	 1,72944689921115E-02 
567	 1,74698124399025E-02 
568	 1,76250424546877E-02 
569	 1,78040430457753E-02 
570	 0,018063902462305 
571	 0,018688990110109 
572	 1,94942982331748E-02 
573	 2,01430666749045E-02 
574	 1,98275454829467E-02 
575	 1,86386034739927E-02 
576	 1,87049525749815E-02 
577	 1,93501170429952E-02 
578	 1,96373959141579E-02 
579	 2,02838456504561E-02 
580	 2,10363721819498E-02 
581	 2,07525333874108E-02 
582	 2,01678978709061E-02 
583	 1,98324079208833E-02 
584	 2,04721820165957E-02 
585	 2,12906007934873E-02 
586	 2,07083320641459E-02 
587	 2,04191238083966E-02 
588	 2,07231270076887E-02 
589	 2,04242586023449E-02 
590	 0,020330368470979 
591	 2,11429077598624E-02 
592	 2,09382561825102E-02 
593	 1,99452675224959E-02 
594	 1,97497867308701E-02 
595	 2,01268356939771E-02 
596	 0,02080898848108 
597	 2,04660679247055E-02 
598	 1,99013770833407E-02 
599	 2,05522564300787E-02 
600	 2,06212518951629E-02 
601	 0,019942496820538 
602	 1,98872762549264E-02 
603	 2,00474681256584E-02 
604	 2,00393099758698E-02 
605	 1,94406134027567E-02 
606	 0,018748613564443 
607	 1,95119395882103E-02 
608	 0,019401147381997 
609	 1,80401918605009E-02 
610	 1,87997227094615E-02 
611	 2,00204423670986E-02 
612	 1,93458115814335E-02 
613	 0,01895506366851 
614	 1,91015522580571E-02 
615	 1,87692907289282E-02 
616	 0,018546288884156 
617	 1,88033194197726E-02 
618	 1,93152770320103E-02 
619	 1,97859514358611E-02 
620	 1,97356190077901E-02 
621	 1,95424704214276E-02 
622	 1,93461109995329E-02 
623	 1,91495359671499E-02 
624	 0,018950677999182 
625	 1,87571453805191E-02 
626	 1,89104613155399E-02 
627	 1,93197419479745E-02 
628	 1,94982883912325E-02 
629	 1,97492922495522E-02 
630	 2,01952570844522E-02 
631	 2,06037903830739E-02 
632	 2,08912086361133E-02 
633	 2,09532560110009E-02 
634	 2,13944152409961E-02 
635	 2,20886847747792E-02 
636	 0,021678430869851 
637	 0,021391214005651 
638	 2,22427892827262E-02 
639	 2,30428078851661E-02 
640	 2,34200166673781E-02 
641	 2,29088515888251E-02 
642	 2,29710562782794E-02 
643	 2,40119618773762E-02 
644	 2,44448044981255E-02 
645	 2,43660905605353E-02 
646	 2,41010708273039E-02 
647	 2,41600687947946E-02 
648	 2,45334512276498E-02 
649	 2,45574693245931E-02 
650	 2,48062968478218E-02 
651	 2,55628320251095E-02 
652	 2,57234059374629E-02 
653	 2,54766400161713E-02 
654	 2,55109310304524E-02 
655	 2,58388931030469E-02 
656	 2,63118745396564E-02 
657	 2,60744101594762E-02 
658	 0,02574781228646 
659	 2,59958093151997E-02 
660	 2,57823425179336E-02 
661	 2,51623001933277E-02 
662	 2,48863990585485E-02 
663	 0,024870426328473 
664	 2,49836380508729E-02 
665	 0,02461653012435 
666	 2,37962992063412E-02 
667	 2,26348138740622E-02 
668	 2,23273655363973E-02 
669	 2,29023649624717E-02 
670	 2,29379193405626E-02 
671	 2,27901700996182E-02 
672	 2,27697194293091E-02 
673	 2,27896274671858E-02 
674	 2,27502724613711E-02 
675	 2,23860308712446E-02 
676	 2,22380817448169E-02 
677	 2,24436863347046E-02 
678	 2,25347105843927E-02 
679	 2,24220850751677E-02 
680	 2,20578117148149E-02 
681	 2,18651455889776E-02 
682	 2,19476548875739E-02 
683	 2,22985173660065E-02 
684	 2,24271229395072E-02 
685	 2,21349298406907E-02 
686	 2,23683465210758E-02 
687	 2,29932470631115E-02 
688	 0,023560148944794 
689	 2,39598334609249E-02 
690	 2,42421180986281E-02 
691	 0,024809309363429 
692	 2,56765696921934E-02 
693	 2,68280339165258E-02 
694	 2,80160310510848E-02 
695	 2,93676216026007E-02 
696	 3,13515843058273E-02 
697	 3,34706438226159E-02 
698	 3,56263697596692E-02 
699	 3,85309728440212E-02 
700	 4,19120263848779E-02 
701	 4,53417085267991E-02 
702	 4,86781992950746E-02 
703	 5,20649435042283E-02 
704	 5,61518267187296E-02 
705	 6,04755062532669E-02 
706	 6,47491506077536E-02 
707	 6,92366325184968E-02 
708	 7,38283073329499E-02 
709	 7,83036099391298E-02 
710	 8,25452857279302E-02 
711	 8,65644287901495E-02 
712	 9,06973226361121E-02 
713	 9,46667663654063E-02 
714	 0,098222079089422 
715	 0,102019906251802 
716	 0,105885412183077 
717	 0,109019991283606 
718	 0,112132568353583 
719	 0,11544339026976 
720	 0,118458664128309 
721	 0,121096044197819 
722	 0,123322705180773 
723	 0,125732339832126 
724	 0,128340001097092 
725	 0,130737517085299 
726	 0,132481783148464 
727	 0,133483541644157 
728	 0,135474464311348 
729	 0,137693407542123 
730	 0,138335118565069 
731	 0,13903459000237 
732	 0,140253766007173 
733	 0,141699614715691 
734	 0,142938378355315 
735	 0,143618031622543 
736	 0,144177949501208 
737	 0,14484882674096 
738	 0,146014446459793 
739	 0,14694749227777 
740	 0,147435184422746 
741	 0,148118763844315 
742	 0,14863156074328 
743	 0,148517855001208 
744	 0,149021117270013 
745	 0,150002567959287 
746	 0,150115443059401 
747	 0,150157626346068 
748	 0,150534127469942 
749	 0,150941517838929 
750	 0,151247102721174 
751	 0,151293719516619 
752	 0,151471507289772 
753	 0,151869330128647 
754	 0,152412935869796 
755	 0,152688513826556 
756	 0,152461011985192 
757	 0,152545027196912 
758	 0,152875060628882 
759	 0,153057482054369 
760	 0,153077874018692 
761	 0,153028467354862 
762	 0,153470402237792 
763	 0,153744007930486 
764	 0,15327027497382 
765	 0,153278392479953 
766	 0,15375796215825 
767	 0,154061454887291 
768	 0,154254689689101 
769	 0,154354150323884 
770	 0,15447688683943 
771	 0,154612165614138 
772	 0,154726873457559 
773	 0,154425225808621 
774	 0,153962012622478 
775	 0,154385825187416 
776	 0,154766227612777 
777	 0,154658634935748 
778	 0,154611137637904 
779	 0,154697001620667 
780	 0,154932866423817 
781	 0,155092656133451 
782	 0,155150895141221 
783	 0,155290294451046 
784	 0,155381191243979 
785	 0,155335398278459 
786	 0,155110391295392 
787	 0,155038463016789 
788	 0,15573998635495 
789	 0,155991401987865 
790	 0,155634007999545 
791	 0,15569886578505 
792	 0,155941342380558 
793	 0,156130594040257 
794	 0,156194953147699 
795	 0,156188553408704 
796	 0,156257248401454 
797	 0,156403561948852 
798	 0,156589592358983 
799	 0,156638669937936 
800	 0,156564044956631 
801	 0,156415692856492 
802	 0,156559809928018 
803	 0,156939103977058 
804	 0,157258248981733 
805	 0,157365484233339 
806	 0,157291106697607 
807	 0,157624191174471 
808	 0,158025975503767 
809	 0,158096500388218 
810	 0,158052103794524 
811	 0,158028608670092 
812	 0,158251943858042 
813	 0,15861260444078 
814	 0,158948817227541 
815	 0,158626549465162 
816	 0,158276414354509 
817	 0,158687399007861 
818	 0,159065483890561 
819	 0,159303404830571 
820	 0,159669194288225 
821	 0,159962219643525 
822	 0,160068019483391 
823	 0,159912789186866 
824	 0,159778459130634 
825	 0,160024220214244 
826	 0,160586251248932 
827	 0,16116778444726 
828	 0,160844351331659 
829	 0,160904562972543 
830	 0,16180573624143 
831	 0,161742064765442 
832	 0,161289157276766 
833	 0,161488454540203 
834	 0,161327601149677 
835	 0,160872902879324 
836	 0,161077955532054 
837	 0,161530500814661 
838	 0,161966822069966 
839	 0,162253485898996 
840	 0,162387211181004 
841	 0,162402495956561 
842	 0,162452421542495 
843	 0,162604766049572 
844	 0,1629255730684 
845	 0,163141996830304 
846	 0,163150749099509 
847	 0,163430609125829 
848	 0,163684663794716 
849	 0,163434579927646 
850	 0,163163589707405 
851	 0,163089616767313 
852	 0,163528078258593 
853	 0,163642613194379 
854	 0,163126748963301 
855	 0,163265942417466 
856	 0,163777828885998 
857	 0,164077453515059 
858	 0,164148401852754 
859	 0,163989005133404 
860	 0,163571997116858 
861	 0,163642998222125 
862	 0,164468786090465 
863	 0,165016358528209 
864	 0,165131600935094 
865	 0,16479170229941 
866	 0,164458875709307 
867	 0,164458691040549 
868	 0,165431600917592 
869	 0,165866119286527 
870	 0,165235582780949 
871	 0,165253240355631 
872	 0,165640878466474 
873	 0,165860779981694 
874	 0,165805727285465 
875	 0,165712525680931 
876	 0,166392702166942 
877	 0,166963384524233 
878	 0,167010564423543 
879	 0,166513560558696 
880	 0,166279821484891 
881	 0,167093158830301 
882	 0,167111206536672 
883	 0,16659847369024 
884	 0,167321931103922 
885	 0,167702671918857 
886	 0,167449728980306 
887	 0,168162475351571 
888	 0,168810047479928 
889	 0,168423515836572 
890	 0,168287678900618 
891	 0,168455521795837 
892	 0,168487295001157 
893	 0,168806159044097 
894	 0,169274725479084 
895	 0,168710920228167 
896	 0,168245362766436 
897	 0,168732278040354 
898	 0,169079625403599 
899	 0,169319642368331 
900	 0,169854292455461 
901	 0,169570731797227 
902	 0,168822554190456 
903	 0,170231980995685 
904	 0,17117777193094 
905	 0,170198132972396 
906	 0,169537406181655 
907	 0,169548536094089 
908	 0,170297630281056 
909	 0,170458008687752 
910	 0,170018832591251 
911	 0,170146540023066 
912	 0,170195670951541 
913	 0,170006136456058 
914	 0,170377695647249 
915	 0,171141051040985 
916	 0,171946824796453 
917	 0,171191731856438 
918	 0,169751309420125 
919	 0,170713270757517 
920	 0,171351901406665 
921	 0,170987973053689 
922	 0,171190419836294 
923	 0,171421426631302 
924	 0,171223891149483 
925	 0,171151080097758 
926	 0,171236475157282 
927	 0,171428559550855 
928	 0,170683334311953 
929	 0,16921680520906 
930	 0,168890881208732 
931	 0,16903609352653 
932	 0,169246347340079 
933	 0,169744074743006 
934	 0,169900183806543 
935	 0,168968608824943 
936	 0,168397591145998 
937	 0,16842823449568 
938	 0,168756768696571 
939	 0,168972629765155 
940	 0,168747742494965 
941	 0,167457124979569 
942	 0,16665988479523 
943	 0,167505402189348 
944	 0,166564739715369 
945	 0,16485549305426 
946	 0,165290234345339 
947	 0,165943866617139 
948	 0,166083577134123 
949	 0,165234272073477 
950	 0,164073466963936 
951	 0,163025682592756 
952	 0,161840793910967 
953	 0,160949819803235 
954	 0,160831644697593 
955	 0,160458606668964 
956	 0,159711124029593 
957	 0,158826271885612 
958	 0,158541570487391 
959	 0,158844938540519 
960	 0,158403809416378 
961	 0,157438431109312 
962	 0,156433489809719 
963	 0,157736122165749 
964	 0,159329108069095 
965	 0,157747269510241 
966	 0,156313302530657 
967	 0,15581890253842 
968	 0,156023151712641 
969	 0,155801450867326 
970	 0,15489128025574 
971	 0,1549424086438 
972	 0,155040481471339 
973	 0,154420688842149 
974	 0,155225672779013 
975	 0,156508636920705 
976	 0,156018449415711 
977	 0,155118519631129 
978	 0,15499481454562 
979	 0,158347049622327 
980	 0,16128759375391 
981	 0,161614921822934 
982	 0,159555034955869 
983	 0,157470553063176 
984	 0,157652991941673 
985	 0,15813761525565 
986	 0,158423305966636 
987	 0,158230935219572 
988	 0,158342437539387 
989	 0,158910297073532 
990	 0,159649057812941 
991	 0,160000956350346 
992	 0,159849764612945 
993	 0,160460938751876 
994	 0,161310271960585 
995	 0,161757598500762 
996	 0,162275718326397 
997	 0,162985907606394 
998	 0,164038329839647 
999	 0,163791366066564 
1000	 0,162743761854572 
1001	 0,164498138574761 
1002	 0,165531345919734 
1003	 0,164918382142188 
1004	 0,168680079041349 
1005	 0,171132923691135 
1006	 0,16713149640155 
1007	 0,167114588878503 
1008	 0,16892485452701 
1009	 0,165510897792275 
1010	 0,16550581072227 
1011	 0,168758370864476 
1012	 0,166637063495298 
1013	 0,166527432065913 
1014	 0,170761853898825 
1015	 0,174353864952006 
1016	 0,173819290498706 
1017	 0,167973559346647 
1018	 0,171564823682971 
1019	 0,177325825200687 
1020	 0,171666396698558 
1021	 0,171659970068355 
1022	 0,176909919246807 
1023	 0,174653451245205 
1024	 0,171784338766932 
1025	 0,170966239279025 
1026	 0,173467304847755 
1027	 0,176797322277202 
1028	 0,178857683402157 
1029	 0,178126108357043 
1030	 0,175527953194041 
1031	 0,172697012221762 
1032	 0,171909994815158 
1033	 0,174969024663929 
1034	 0,184369413932024 
1035	 0,186800382765357 
1036	 0,18066773899807 
1037	 0,174433104272283 
1038	 0,17309630391629 
1039	 0,178500431268207 
1040	 0,186005256871691 
1041	 0,188355839495508 
1042	 0,18164737951485 
1043	 0,183555516802819 
1044	 0,190378669716714 
1045	 0,193406121373088 
1046	 0,187809481062679 
1047	 0,179280438013169 
1048	 0,184584462997744 
1049	 0,188264135449802 
1050	 0,186744778039381 
1051	 0,184425010375047 
1052	 0,18512116053444 
1053	 0,189326296174459 
1054	 0,188881600183259 
1055	 0,18416053624502 
1056	 0,177778994167412 
1057	 0,183807298155516 
1058	 0,194397713807264 
1059	 0,196575876492846 
1060	 0,193323336496768 
1061	 0,189446896240698 
1062	 0,1954838364797 
1063	 0,190610820388832 
1064	 0,175334977088935 
1065	 0,17370193773066 
1066	 0,183620803541213 
1067	 0,199247613551151 
1068	 0,196902612223599 
1069	 0,187672310715251 
1070	 0,18067574806013 
1071	 0,172917356236969 
1072	 0,164561532441433 
1073	 0,157983563976234 
1074	 0,17164561390357 
1075	 0,194477819661927 
