Wavelength	PENFOUL00018.asd
325	 0,158827580374295 
326	 0,113060867722625 
327	 0,148561455290388 
328	 0,222245858816537 
329	 0,107305788958194 
330	 0,125517333002163 
331	 0,390923209379158 
332	 0,372134167220974 
333	 0,204160760349337 
334	 0,319708981015042 
335	 0,348733081900367 
336	 0,221110898035174 
337	 0,14381087228727 
338	 0,10930005518061 
339	 0,107307687086834 
340	 0,122335992648218 
341	 0,140223139996595 
342	 0,151266742440025 
343	 0,135199264592265 
344	 9,69866096486073E-02 
345	 0,127418687645969 
346	 0,143062952366325 
347	 7,10492713247011E-02 
348	 6,79719162838544E-02 
349	 0,115407935178758 
350	 0,121047952386212 
351	 9,89491281695279E-02 
352	 6,12049925798306E-02 
353	 7,29840095717817E-02 
354	 8,99948465542867E-02 
355	 6,47866092794944E-02 
356	 0,058938433274709 
357	 7,72720129254252E-02 
358	 9,75455658141608E-02 
359	 9,46453222398007E-02 
360	 6,42897344447827E-02 
361	 0,053643746003906 
362	 6,37976017826614E-02 
363	 0,086115097173263 
364	 7,49807845524017E-02 
365	 4,05532524250956E-02 
366	 6,17470320427073E-02 
367	 0,081277644363149 
368	 6,75234391127902E-02 
369	 6,37913989125062E-02 
370	 7,46055183823729E-02 
371	 0,101648011274542 
372	 0,079892426224742 
373	 1,97500140840586E-02 
374	 6,48387764965822E-02 
375	 9,35350841207216E-02 
376	 2,97007722924213E-02 
377	 3,44496360724527E-02 
378	 8,16587005423452E-02 
379	 6,24376958766151E-02 
380	 5,29907408494009E-02 
381	 7,08978677650514E-02 
382	 7,55619324619236E-02 
383	 7,14395117937136E-02 
384	 6,46796255659236E-02 
385	 5,98734102957343E-02 
386	 5,82388879523189E-02 
387	 5,89355842637582E-02 
388	 6,02695119319088E-02 
389	 6,17801493637469E-02 
390	 6,67537640564263E-02 
391	 7,07792552546691E-02 
392	 6,83673276139613E-02 
393	 5,83237909778457E-02 
394	 4,79551095583436E-02 
395	 5,90332631860745E-02 
396	 6,88632832966933E-02 
397	 6,52034866670205E-02 
398	 5,42935997952201E-02 
399	 4,43942700968122E-02 
400	 4,60892133723817E-02 
401	 0,043372055222605 
402	 3,63774690266283E-02 
403	 4,16411376413547E-02 
404	 4,92331878139609E-02 
405	 5,19681802169937E-02 
406	 4,82871075559849E-02 
407	 0,041479736518338 
408	 0,038284572250392 
409	 3,95069568584057E-02 
410	 4,41384464332642E-02 
411	 4,69819011485954E-02 
412	 4,84109310819057E-02 
413	 4,88960076688261E-02 
414	 4,57077822449985E-02 
415	 4,18943929673124E-02 
416	 4,69017778434819E-02 
417	 4,88288214322026E-02 
418	 4,49982940600271E-02 
419	 5,09297785139616E-02 
420	 5,66464047636561E-02 
421	 4,86406206486861E-02 
422	 4,63475396629018E-02 
423	 5,06269408383095E-02 
424	 4,79003911774793E-02 
425	 4,51790393053239E-02 
426	 4,64634893857324E-02 
427	 4,89364837998654E-02 
428	 4,95894798900295E-02 
429	 4,33712382763313E-02 
430	 4,09254210185196E-02 
431	 4,40044149191211E-02 
432	 4,49055483944924E-02 
433	 4,43455195430277E-02 
434	 0,043342711082737 
435	 4,29238884260398E-02 
436	 0,043707367307561 
437	 4,65706367670457E-02 
438	 4,99627100130955E-02 
439	 5,24629527670629E-02 
440	 0,050808596091966 
441	 4,78179802743354E-02 
442	 4,73669390432333E-02 
443	 4,56821986552345E-02 
444	 4,34723587069837E-02 
445	 4,59109381103077E-02 
446	 4,88579082880102E-02 
447	 0,049471947739966 
448	 4,69908221021276E-02 
449	 4,46475354346535E-02 
450	 0,048972576365925 
451	 4,98412016344399E-02 
452	 4,62674027917532E-02 
453	 4,89473054675476E-02 
454	 5,26509883109834E-02 
455	 5,22474491374918E-02 
456	 5,16872684929677E-02 
457	 5,08706607889116E-02 
458	 4,69707805055227E-02 
459	 4,59645239059762E-02 
460	 4,94698574052176E-02 
461	 4,97924468716874E-02 
462	 4,89706640682361E-02 
463	 5,07132016398143E-02 
464	 4,96787825335101E-02 
465	 4,65347939047503E-02 
466	 4,81046178865083E-02 
467	 5,06231095202446E-02 
468	 5,15301103108042E-02 
469	 5,18613811263074E-02 
470	 5,13383117817948E-02 
471	 4,87689606446917E-02 
472	 4,94076152898533E-02 
473	 5,35997148801216E-02 
474	 5,44714568502454E-02 
475	 5,28630064623824E-02 
476	 5,02076640552898E-02 
477	 5,07670386258114E-02 
478	 0,053504936797366 
479	 0,052974880215704 
480	 5,17316546794636E-02 
481	 5,12338083650676E-02 
482	 0,053284586819427 
483	 5,51768929755022E-02 
484	 5,27103604816329E-02 
485	 5,16561760170283E-02 
486	 5,29408992034371E-02 
487	 5,35984252853144E-02 
488	 5,42892797934391E-02 
489	 5,54228584503279E-02 
490	 5,56693373049575E-02 
491	 5,53301308665626E-02 
492	 5,57427120967717E-02 
493	 0,055103339835463 
494	 5,32701821647786E-02 
495	 5,28684231141016E-02 
496	 5,30279458980964E-02 
497	 5,25555523975597E-02 
498	 5,30224237603881E-02 
499	 5,42159348963684E-02 
500	 5,45104711241491E-02 
501	 5,46703206960412E-02 
502	 5,51121000982895E-02 
503	 5,59241983185897E-02 
504	 5,58296583485269E-02 
505	 5,23199198549612E-02 
506	 5,13270433431385E-02 
507	 5,40158267602873E-02 
508	 5,71578936450775E-02 
509	 5,81900050333324E-02 
510	 0,055365141772915 
511	 5,56933064378306E-02 
512	 5,83228383353001E-02 
513	 5,71690437785676E-02 
514	 5,68785630806158E-02 
515	 5,88505473554275E-02 
516	 5,86272390523779E-02 
517	 0,057506326148478 
518	 5,78850559315139E-02 
519	 5,79164165560788E-02 
520	 5,75489317398295E-02 
521	 5,83268035005348E-02 
522	 0,05884873641524 
523	 5,81841865113019E-02 
524	 5,78606707039619E-02 
525	 5,81309454491581E-02 
526	 5,90883368723915E-02 
527	 5,95508078800886E-02 
528	 5,93404344971006E-02 
529	 6,02347303303373E-02 
530	 6,09463188955908E-02 
531	 5,99129302679997E-02 
532	 5,95317437133023E-02 
533	 6,00842079200946E-02 
534	 6,06211611188651E-02 
535	 6,09781917116539E-02 
536	 6,10788796510273E-02 
537	 6,14023354458213E-02 
538	 6,17563783150056E-02 
539	 6,16322912985999E-02 
540	 6,18228308816087E-02 
541	 6,22930782367228E-02 
542	 0,061653604222932 
543	 6,09868121539177E-02 
544	 6,13784928709713E-02 
545	 6,19133949525335E-02 
546	 6,24253648754152E-02 
547	 0,063147058508571 
548	 6,31854182702946E-02 
549	 6,23864319872871E-02 
550	 6,29820478519589E-02 
551	 6,41212749601593E-02 
552	 6,41178104042872E-02 
553	 6,40024385944118E-02 
554	 6,39358655424698E-02 
555	 0,063278205871034 
556	 6,31676289017565E-02 
557	 6,44352434600456E-02 
558	 6,51354455942809E-02 
559	 6,51752792854043E-02 
560	 6,52365931918719E-02 
561	 6,55278907846165E-02 
562	 6,60439590874611E-02 
563	 6,60518300552372E-02 
564	 6,56387139520608E-02 
565	 6,50064010196032E-02 
566	 0,064903930820647 
567	 6,54494313010464E-02 
568	 6,62523455862358E-02 
569	 0,066978005008601 
570	 6,73628908006982E-02 
571	 6,73065494781555E-02 
572	 6,72662064016631E-02 
573	 6,83576480057422E-02 
574	 6,86724510783579E-02 
575	 6,79303340245294E-02 
576	 6,85097022348076E-02 
577	 6,94976603853555E-02 
578	 0,069700384631183 
579	 7,02858341019372E-02 
580	 7,10107881137024E-02 
581	 7,02710270844934E-02 
582	 6,97309280377507E-02 
583	 7,03490278751186E-02 
584	 7,15774020246741E-02 
585	 7,25415150847437E-02 
586	 7,17971360337406E-02 
587	 7,19661916588498E-02 
588	 7,33488692686546E-02 
589	 7,33449076546723E-02 
590	 7,31925760057234E-02 
591	 7,40629564744917E-02 
592	 7,39891508236459E-02 
593	 7,32998033805348E-02 
594	 7,39882777360848E-02 
595	 7,44087826381824E-02 
596	 7,39640709265514E-02 
597	 7,40708046455042E-02 
598	 7,44613675064076E-02 
599	 7,45155688005698E-02 
600	 7,45193196605471E-02 
601	 7,45160089313789E-02 
602	 7,43955906742352E-02 
603	 7,43105757587348E-02 
604	 7,43678153345937E-02 
605	 0,07428233177575 
606	 7,42069385194084E-02 
607	 7,47704218049057E-02 
608	 7,45555337340835E-02 
609	 7,34645923822733E-02 
610	 7,43850979216787E-02 
611	 7,55188590670802E-02 
612	 7,43990466187524E-02 
613	 7,31188788436345E-02 
614	 7,24288095594217E-02 
615	 7,29139864592354E-02 
616	 7,36348469603833E-02 
617	 7,39572396453171E-02 
618	 7,42375311951837E-02 
619	 7,44435228628499E-02 
620	 7,44365225247724E-02 
621	 0,074384205697673 
622	 7,43586393690071E-02 
623	 7,44360256084558E-02 
624	 7,42851139622454E-02 
625	 7,36039939876141E-02 
626	 7,35036337790405E-02 
627	 7,39225183062986E-02 
628	 7,39563575020755E-02 
629	 7,38428189992169E-02 
630	 7,38008552405455E-02 
631	 7,46173467042705E-02 
632	 7,55760379749968E-02 
633	 7,54129119724035E-02 
634	 0,074895412079283 
635	 7,45051674756786E-02 
636	 7,51375066253192E-02 
637	 7,60448743756869E-02 
638	 7,65491285583596E-02 
639	 7,67499952385135E-02 
640	 7,68560829356055E-02 
641	 7,73599614859668E-02 
642	 7,79765413929074E-02 
643	 7,84743694786827E-02 
644	 7,81873888199413E-02 
645	 7,79151387332715E-02 
646	 7,87619288328663E-02 
647	 7,87618496789019E-02 
648	 7,79009269312168E-02 
649	 7,78541887348836E-02 
650	 7,83082464593172E-02 
651	 7,89199620810592E-02 
652	 0,078610415950812 
653	 7,76986373962921E-02 
654	 7,71272329501749E-02 
655	 7,69408572593154E-02 
656	 7,70212332523835E-02 
657	 0,076480944596286 
658	 7,59318492826412E-02 
659	 7,60315150794675E-02 
660	 7,58097380936792E-02 
661	 7,52445301169918E-02 
662	 7,48871914491364E-02 
663	 7,46080413503714E-02 
664	 7,42871917995155E-02 
665	 7,35172982721384E-02 
666	 7,25835057286149E-02 
667	 7,19542474349435E-02 
668	 7,19601209836734E-02 
669	 7,25120042554563E-02 
670	 0,072927513921767 
671	 0,072899605009637 
672	 7,22908000558037E-02 
673	 7,24403432960854E-02 
674	 7,29336381498962E-02 
675	 0,072037019942623 
676	 7,18753162145402E-02 
677	 7,29257253357569E-02 
678	 7,31372415596272E-02 
679	 7,29460843457388E-02 
680	 7,30696693302982E-02 
681	 0,07339354276156 
682	 7,38522092196735E-02 
683	 7,43349272434308E-02 
684	 7,44858465597958E-02 
685	 7,42298926224682E-02 
686	 7,47236822220699E-02 
687	 7,57991476569876E-02 
688	 7,68979454341355E-02 
689	 7,77818538336208E-02 
690	 7,84973979270716E-02 
691	 7,96988440457315E-02 
692	 8,11243851089864E-02 
693	 8,25362981822588E-02 
694	 8,43664158459339E-02 
695	 8,64534956231287E-02 
696	 8,81404172220265E-02 
697	 9,02203229434594E-02 
698	 0,092992850031671 
699	 9,61244592062181E-02 
700	 9,92737270498153E-02 
701	 0,102061049880757 
702	 0,104902411091473 
703	 0,107927107590956 
704	 0,111232153795441 
705	 0,11442495322892 
706	 0,117290791466606 
707	 0,120346742612349 
708	 0,123407224070175 
709	 0,126008640286687 
710	 0,128391243010833 
711	 0,130689668269108 
712	 0,133175165954778 
713	 0,135510224793221 
714	 0,137390402240638 
715	 0,139430601498103 
716	 0,141439915758026 
717	 0,142555563092116 
718	 0,14380268978624 
719	 0,145558602051088 
720	 0,147283563281363 
721	 0,148660045957282 
722	 0,149367454164512 
723	 0,150363477264366 
724	 0,151683540955823 
725	 0,152586579515951 
726	 0,153244670836957 
727	 0,153842495638001 
728	 0,155031098113943 
729	 0,156247980038822 
730	 0,156327834001403 
731	 0,156491116249011 
732	 0,157017237483373 
733	 0,157348259706197 
734	 0,157618901653398 
735	 0,15797784848639 
736	 0,158630335784802 
737	 0,1594035349824 
738	 0,159784048155756 
739	 0,160159094459031 
740	 0,160652164481467 
741	 0,16113219932014 
742	 0,161488538003917 
743	 0,161610266145249 
744	 0,161623035434682 
745	 0,161702859894556 
746	 0,16230919500323 
747	 0,162641242064073 
748	 0,162402734276256 
749	 0,162883998797437 
750	 0,163519432936524 
751	 0,16319231937616 
752	 0,163428547355968 
753	 0,164265079686845 
754	 0,164232515217003 
755	 0,163876777841363 
756	 0,163658928679975 
757	 0,163791422056184 
758	 0,164214316975603 
759	 0,164745884639663 
760	 0,165068057072937 
761	 0,165103059206787 
762	 0,165124746911533 
763	 0,165245718359158 
764	 0,165536033694868 
765	 0,16562902348934 
766	 0,165518712509582 
767	 0,165298083087908 
768	 0,165533766296269 
769	 0,166290074427946 
770	 0,16643242268344 
771	 0,166389856499125 
772	 0,166771856183939 
773	 0,166958276130339 
774	 0,166892759060438 
775	 0,166781298882605 
776	 0,166908128947998 
777	 0,167352107134894 
778	 0,167459105944897 
779	 0,167440826547617 
780	 0,167719238868507 
781	 0,167955014579236 
782	 0,168029193594583 
783	 0,167782011538957 
784	 0,167846174034709 
785	 0,168551310494913 
786	 0,168913995954505 
787	 0,168938037917837 
788	 0,168902096990201 
789	 0,168812787880863 
790	 0,168720898949655 
791	 0,168719657670942 
792	 0,168746642900975 
793	 0,168775128774827 
794	 0,169135165137017 
795	 0,169569530856945 
796	 0,169394549556139 
797	 0,169489741809418 
798	 0,169976337263183 
799	 0,16994699487719 
800	 0,16972202618499 
801	 0,16965873203253 
802	 0,169811414424132 
803	 0,170161074629025 
804	 0,170662718046105 
805	 0,170938704599745 
806	 0,170876882698122 
807	 0,170789196115824 
808	 0,170863374948165 
809	 0,171242959154136 
810	 0,171250127084001 
811	 0,170990180306079 
812	 0,17117864571239 
813	 0,171352493006411 
814	 0,171331972049858 
815	 0,171251187214861 
816	 0,171209739757137 
817	 0,171311255715179 
818	 0,17152839815969 
819	 0,171813326075559 
820	 0,172063858949332 
821	 0,172294398643164 
822	 0,172465909452164 
823	 0,172371486345081 
824	 0,172093912011037 
825	 0,171774579825911 
826	 0,172248946865828 
827	 0,173173403840379 
828	 0,172797287620384 
829	 0,172420976723408 
830	 0,172648524024441 
831	 0,17269040338438 
832	 0,172535893446149 
833	 0,172283170633087 
834	 0,172284021604751 
835	 0,172516562410083 
836	 0,172579269364442 
837	 0,172624819875322 
838	 0,172709224991608 
839	 0,172590710681443 
840	 0,172660200921398 
841	 0,173482765292586 
842	 0,173678175434195 
843	 0,173255189302163 
844	 0,173478965545827 
845	 0,173809540613597 
846	 0,173970793646384 
847	 0,174259854332607 
848	 0,17427944488392 
849	 0,173456910619828 
850	 0,173128541405434 
851	 0,173482716452937 
852	 0,173964939130287 
853	 0,174032088931953 
854	 0,173495630128574 
855	 0,173377593714955 
856	 0,173610640597627 
857	 0,173928390366221 
858	 0,174024701069696 
859	 0,173950450379573 
860	 0,174216832951934 
861	 0,174283156361936 
862	 0,173987235523088 
863	 0,174234462105844 
864	 0,174592545457424 
865	 0,174394249257873 
866	 0,17457451621885 
867	 0,175091174593122 
868	 0,175178421071025 
869	 0,175041155868011 
870	 0,174787411193189 
871	 0,17447084214338 
872	 0,17430928656397 
873	 0,174532671215176 
874	 0,174764926809954 
875	 0,174905082710432 
876	 0,174933945070722 
877	 0,175063125179768 
878	 0,175292371870713 
879	 0,175051032404267 
880	 0,174805056636805 
881	 0,175057957234268 
882	 0,174721257219252 
883	 0,174173442146198 
884	 0,175016923740107 
885	 0,17565403378222 
886	 0,175630328625768 
887	 0,175898309745462 
888	 0,176051772131646 
889	 0,17572486918689 
890	 0,175776329539916 
891	 0,176079601351117 
892	 0,175996971632361 
893	 0,17601282713257 
894	 0,176156548943302 
895	 0,175821066074781 
896	 0,17571108159368 
897	 0,176303821219694 
898	 0,176517757112537 
899	 0,176403434192184 
900	 0,176367363059952 
901	 0,176250169914824 
902	 0,176110095203947 
903	 0,176255019417701 
904	 0,176474006488813 
905	 0,176554033492224 
906	 0,176014017519597 
907	 0,175357781270514 
908	 0,175360964504815 
909	 0,176002017654013 
910	 0,176884419354977 
911	 0,176795097778369 
912	 0,176772138647689 
913	 0,177184102279787 
914	 0,17701856216804 
915	 0,177009269800811 
916	 0,177956578427566 
917	 0,177803747632943 
918	 0,176909592663038 
919	 0,177316734828393 
920	 0,177229468342609 
921	 0,1765185332464 
922	 0,177670293669132 
923	 0,178391682162893 
924	 0,176952447093867 
925	 0,176810858292692 
926	 0,177413190214821 
927	 0,176743269780938 
928	 0,176432615172577 
929	 0,176656283617773 
930	 0,17625479196926 
931	 0,176303734834611 
932	 0,177319689889786 
933	 0,178389350075537 
934	 0,178686478221604 
935	 0,177394360715325 
936	 0,176360428649833 
937	 0,176140480988926 
938	 0,176965981446338 
939	 0,17772773128226 
940	 0,177728658157592 
941	 0,176102655712642 
942	 0,174859526526498 
943	 0,175667876010558 
944	 0,175916242785685 
945	 0,176045787208782 
946	 0,177745183215287 
947	 0,178241751078664 
948	 0,177181270539312 
949	 0,176502342373554 
950	 0,175631070645458 
951	 0,174383089807252 
952	 0,173449003518995 
953	 0,173024430248536 
954	 0,173233856396658 
955	 0,174155378659803 
956	 0,175097360368224 
957	 0,174222724965008 
958	 0,174327563578683 
959	 0,175905466983313 
960	 0,176687796435618 
961	 0,175822387529391 
962	 0,173251616218002 
963	 0,17348161975046 
964	 0,175264273298466 
965	 0,175690679220068 
966	 0,174842517209679 
967	 0,173617470491008 
968	 0,17504172785821 
969	 0,175692359610562 
970	 0,174442778962159 
971	 0,173876446761366 
972	 0,173308851350778 
973	 0,172257548843584 
974	 0,174071481359478 
975	 0,17688775553363 
976	 0,17656566730488 
977	 0,174706073625606 
978	 0,172932811733231 
979	 0,175174608511914 
980	 0,177303515586911 
981	 0,17724407023179 
982	 0,176219834223224 
983	 0,17610860551296 
984	 0,178333851325519 
985	 0,177431970011863 
986	 0,174952323914765 
987	 0,175811251095342 
988	 0,176865011884306 
989	 0,177222593042438 
990	 0,176916032142998 
991	 0,177076616207646 
992	 0,178126993703078 
993	 0,178626811598161 
994	 0,178945137211333 
995	 0,179587972673357 
996	 0,180444602982876 
997	 0,181349371111311 
998	 0,182134380186048 
999	 0,181011443775897 
1000	 0,178584892672154 
1001	 0,178561308011237 
1002	 0,180170286328063 
1003	 0,182505842571228 
1004	 0,18293299020242 
1005	 0,182468597915884 
1006	 0,182170354411116 
1007	 0,179261808396436 
1008	 0,176775858571694 
1009	 0,180598708507501 
1010	 0,18189320148117 
1011	 0,180093070417403 
1012	 0,18175410611828 
1013	 0,183665504711028 
1014	 0,184567171121925 
1015	 0,1858647520231 
1016	 0,18533522476878 
1017	 0,181901361467666 
1018	 0,183641070783144 
1019	 0,186833257368959 
1020	 0,184373634555209 
1021	 0,182334349215275 
1022	 0,181734608112881 
1023	 0,181496270118429 
1024	 0,179189601230368 
1025	 0,175968022074845 
1026	 0,181089139364792 
1027	 0,186673314649089 
1028	 0,187268714135499 
1029	 0,184294330244537 
1030	 0,181537153040403 
1031	 0,18305692299741 
1032	 0,183786402866805 
1033	 0,185224024604533 
1034	 0,19240889900279 
1035	 0,193307197646513 
1036	 0,187658909269819 
1037	 0,187429592319368 
1038	 0,187067109221591 
1039	 0,185145813042839 
1040	 0,187727596926498 
1041	 0,18694130829814 
1042	 0,178796436162273 
1043	 0,187888861160638 
1044	 0,200575827922108 
1045	 0,194519128230319 
1046	 0,185008287825755 
1047	 0,18010640337293 
1048	 0,191032067266639 
1049	 0,195912248470321 
1050	 0,190626282396902 
1051	 0,186739327333477 
1052	 0,186822750433327 
1053	 0,190686115109059 
1054	 0,188657244713085 
1055	 0,186556607154149 
1056	 0,189622632493069 
1057	 0,19205353072733 
1058	 0,194041956056731 
1059	 0,19692008099799 
1060	 0,197097859090479 
1061	 0,195678308082061 
1062	 0,197059087548577 
1063	 0,197961862020998 
1064	 0,197577896659121 
1065	 0,196710647556626 
1066	 0,194788211278387 
1067	 0,191842480756735 
1068	 0,189056774081326 
1069	 0,187736094239681 
1070	 0,188593710840176 
1071	 0,191616059600477 
1072	 0,191134427571454 
1073	 0,182144193530406 
1074	 0,188000278132233 
1075	 0,198254666508144 
