Wavelength	PENFOUL00099.asd
325	 0,123527528422477 
326	 0,177378555914605 
327	 0,283183902585304 
328	 0,341252287622593 
329	 0,24495463683695 
330	 0,147802002616629 
331	 0,18717739576768 
332	 0,144693806062085 
333	 6,56194681262335E-02 
334	 0,20518688696472 
335	 0,201948848455062 
336	 1,64101765067798E-02 
337	-3,17329717358874E-02 
338	-6,45767492832309E-03 
339	 1,54135389376807E-02 
340	 9,03326170751741E-02 
341	 0,167802595519626 
342	 0,151034675541467 
343	 9,99910954903897E-02 
344	 4,89733711751522E-02 
345	 8,59384032743333E-02 
346	 0,124365243502415 
347	 8,20369139202837E-02 
348	 7,15871194128344E-02 
349	 8,55801189904431E-02 
350	 0,067391906597595 
351	 4,94781059513985E-02 
352	 4,77118236978475E-02 
353	 0,08449262285329 
354	 0,113825425159271 
355	 9,81514599216773E-02 
356	 7,13587583595649E-02 
357	 5,37481802942409E-02 
358	 8,73651186674357E-02 
359	 0,101787226542388 
360	 7,40670518101525E-02 
361	 6,52745974433419E-02 
362	 7,12273404866628E-02 
363	 0,07416842325741 
364	 8,85186214173055E-02 
365	 0,106283706091866 
366	 8,20962297906634E-02 
367	 7,38241527713587E-02 
368	 0,107834164496911 
369	 9,80281759762729E-02 
370	 6,91702029227138E-02 
371	 8,55134524026158E-02 
372	 8,74652323496632E-02 
373	 6,97653228433632E-02 
374	 8,57271743883634E-02 
375	 0,103287574017573 
376	 0,102176263164486 
377	 0,102338609776519 
378	 0,102028772867518 
379	 8,96030275872279E-02 
380	 8,41965763104556E-02 
381	 8,98253509871819E-02 
382	 8,71321540378121E-02 
383	 8,37422741715569E-02 
384	 8,68137308304857E-02 
385	 8,44680751055673E-02 
386	 7,87351894491475E-02 
387	 7,94254101609821E-02 
388	 8,48207163837354E-02 
389	 9,37048628021557E-02 
390	 0,107811502802443 
391	 0,110574153678261 
392	 8,32176320474216E-02 
393	 7,69850956406863E-02 
394	 0,09074792919417 
395	 8,68154637734116E-02 
396	 8,04031162245334E-02 
397	 7,97066361087744E-02 
398	 8,34458627749344E-02 
399	 8,95744500335022E-02 
400	 9,61061231318314E-02 
401	 9,00932785931134E-02 
402	 7,50461116359009E-02 
403	 7,70594478877468E-02 
404	 8,22886344113167E-02 
405	 8,17932212881764E-02 
406	 8,74470894822569E-02 
407	 9,45830261916442E-02 
408	 9,00277268574025E-02 
409	 8,71504799970356E-02 
410	 8,82651825950692E-02 
411	 8,43267152929028E-02 
412	 8,04467562866016E-02 
413	 8,15573805209522E-02 
414	 0,080877731974181 
415	 7,89282956697744E-02 
416	 8,05150255822902E-02 
417	 0,081357661146543 
418	 8,08889552309989E-02 
419	 8,70853312102666E-02 
420	 9,25508036464038E-02 
421	 8,77798079415116E-02 
422	 8,59414965540627E-02 
423	 8,78118179883738E-02 
424	 0,084719433013721 
425	 8,16491663307846E-02 
426	 0,081604050917032 
427	 8,37844216460058E-02 
428	 8,56330112857978E-02 
429	 8,28241866407552E-02 
430	 8,03382181971692E-02 
431	 8,01554139592902E-02 
432	 8,38121649812647E-02 
433	 8,62731880164125E-02 
434	 8,35484965029968E-02 
435	 8,24533926431795E-02 
436	 0,083891421126568 
437	 8,71342572093685E-02 
438	 8,87881998653813E-02 
439	 8,73172171124118E-02 
440	 8,31508786367038E-02 
441	 8,04675829441665E-02 
442	 8,42998703109454E-02 
443	 8,56596052117847E-02 
444	 8,41727051353775E-02 
445	 8,67197240888759E-02 
446	 8,84180117347292E-02 
447	 0,086492172986733 
448	 8,42803381971778E-02 
449	 8,31367384787262E-02 
450	 0,084665119267078 
451	 8,64654512087037E-02 
452	 8,75645973631453E-02 
453	 8,76527188903958E-02 
454	 8,76905345021729E-02 
455	 8,83886357468325E-02 
456	 8,57931485998606E-02 
457	 8,18806759938329E-02 
458	 0,083965234806529 
459	 8,54646841582107E-02 
460	 8,39995480963965E-02 
461	 8,32055925952395E-02 
462	 8,45992334478115E-02 
463	 8,97148116810303E-02 
464	 9,04706323848279E-02 
465	 8,68221094924923E-02 
466	 8,61734736801303E-02 
467	 8,73098050437146E-02 
468	 8,91715262027204E-02 
469	 8,98017207995483E-02 
470	 8,94297178674128E-02 
471	 8,89408529547637E-02 
472	 9,06350876751248E-02 
473	 9,40276127353953E-02 
474	 9,34846338596966E-02 
475	 9,02869693875243E-02 
476	 8,62150841712296E-02 
477	 8,47469117306104E-02 
478	 8,58296378432464E-02 
479	 8,69988156159494E-02 
480	 8,80125401635644E-02 
481	 8,86560057163902E-02 
482	 8,92385405317979E-02 
483	 8,96769271704533E-02 
484	 8,98318144449377E-02 
485	 8,95816772007559E-02 
486	 8,90570213633786E-02 
487	 8,86702414014569E-02 
488	 8,88397127528894E-02 
489	 0,089739678858627 
490	 8,98335995645141E-02 
491	 8,91106699838867E-02 
492	 8,80586396752477E-02 
493	 8,72577222930758E-02 
494	 8,71771801436921E-02 
495	 8,89541562796688E-02 
496	 0,08982821763272 
497	 8,67566957164323E-02 
498	 8,56962058284204E-02 
499	 8,71955259242686E-02 
500	 8,84867983105184E-02 
501	 8,92914967437282E-02 
502	 8,94232097426134E-02 
503	 8,94424298550424E-02 
504	 8,93033519357748E-02 
505	 8,87482892796542E-02 
506	 8,80226817825612E-02 
507	 8,78983268358769E-02 
508	 9,14461385388617E-02 
509	 9,38875682287102E-02 
510	 9,12765289285951E-02 
511	 9,15839289433089E-02 
512	 9,41782350418176E-02 
513	 9,31282952662361E-02 
514	 9,30671668688107E-02 
515	 0,095409000650513 
516	 9,58225063572244E-02 
517	 9,52476172250876E-02 
518	 9,55486957039263E-02 
519	 9,66180811804565E-02 
520	 0,09802256635165 
521	 0,098386701338192 
522	 9,77982044095112E-02 
523	 9,65806338725422E-02 
524	 9,72095704834286E-02 
525	 9,87927572757999E-02 
526	 9,86075843055972E-02 
527	 9,72710962078073E-02 
528	 9,55528882412614E-02 
529	 0,096408769378635 
530	 9,80257866011427E-02 
531	 9,81089729974654E-02 
532	 9,74155788914624E-02 
533	 0,096465005139162 
534	 9,63444228312422E-02 
535	 9,63237005544904E-02 
536	 9,60520325636772E-02 
537	 9,63755362559107E-02 
538	 0,097015750266032 
539	 9,73051117656966E-02 
540	 0,097444353370617 
541	 0,097389474732192 
542	 9,66174787392547E-02 
543	 9,63054931565832E-02 
544	 9,75193308964735E-02 
545	 9,80646295303435E-02 
546	 9,78585750124559E-02 
547	 9,80269113095909E-02 
548	 9,81288721215242E-02 
549	 9,81218657023055E-02 
550	 9,91603591165302E-02 
551	 0,100208645275794 
552	 9,95214278496524E-02 
553	 9,85718609188922E-02 
554	 9,78937941357493E-02 
555	 0,0976712067782 
556	 9,77213621390791E-02 
557	 9,78274796812955E-02 
558	 9,74135582621362E-02 
559	 9,65826540125131E-02 
560	 9,58013031007515E-02 
561	 9,53644973403489E-02 
562	 9,53459436222109E-02 
563	 9,52877439930251E-02 
564	 9,47880521145044E-02 
565	 9,33905340148928E-02 
566	 9,28072242477677E-02 
567	 9,34051560996856E-02 
568	 9,48364098172163E-02 
569	 9,55835047191236E-02 
570	 0,094827883130899 
571	 9,56407578985754E-02 
572	 9,77122254290112E-02 
573	 9,94483803179167E-02 
574	 0,100231246624019 
575	 0,100137336884694 
576	 0,101257746078797 
577	 0,102811966732122 
578	 0,103774434648966 
579	 0,105542167843181 
580	 0,107719854763692 
581	 0,108151156441854 
582	 0,108487149598337 
583	 0,109643814821468 
584	 0,110879850026776 
585	 0,111793615182382 
586	 0,111765666393545 
587	 0,112720555336966 
588	 0,114759269048777 
589	 0,115466362235964 
590	 0,1158845502918 
591	 0,117018153128974 
592	 0,117457072871008 
593	 0,117200724427331 
594	 0,116876089902623 
595	 0,116926793958839 
596	 0,117536556433072 
597	 0,118241120271435 
598	 0,118438826147557 
599	 0,117313811307105 
600	 0,116974324842742 
601	 0,11750792853824 
602	 0,116624216008622 
603	 0,115913683615352 
604	 0,116491717583559 
605	 0,115675578219835 
606	 0,114050006982397 
607	 0,114233695889307 
608	 0,113962585567728 
609	 0,112751874469258 
610	 0,113005952141484 
611	 0,113253709063967 
612	 0,111484360308031 
613	 0,110220008634599 
614	 0,109882305736076 
615	 0,109615457653895 
616	 0,109445064616183 
617	 0,109325346077439 
618	 0,108843360852759 
619	 0,108337463592309 
620	 0,108635248345705 
621	 0,108610253905086 
622	 0,108034665615239 
623	 0,107728529213718 
624	 0,107651614646296 
625	 0,107719277512375 
626	 0,108188844510388 
627	 0,108796773325813 
628	 0,108678389009483 
629	 0,108481151721753 
630	 0,108636935365605 
631	 0,109564034244258 
632	 0,110860268490082 
633	 0,11187931984536 
634	 0,111806748742622 
635	 0,11102498474445 
636	 0,112016669894095 
637	 0,113924789538017 
638	 0,115852323554871 
639	 0,116876193136003 
640	 0,117197567866794 
641	 0,117806141960577 
642	 0,118674963197416 
643	 0,11968370679782 
644	 0,119931211437427 
645	 0,119944422977938 
646	 0,12051038422041 
647	 0,120900914957336 
648	 0,120897652170658 
649	 0,120409401130642 
650	 0,119910766199593 
651	 0,119646326079345 
652	 0,118741569929458 
653	 0,117279767377987 
654	 0,115589218967806 
655	 0,114574745007196 
656	 0,114138647969564 
657	 0,112030107197289 
658	 0,109675313649768 
659	 0,108639140346839 
660	 0,107175836157879 
661	 0,105206750179421 
662	 0,103588888795531 
663	 0,102040016258927 
664	 0,100470572292267 
665	 9,92748603795775E-02 
666	 9,79929065258236E-02 
667	 9,57838923066607E-02 
668	 9,47403360700528E-02 
669	 0,095039969670598 
670	 9,48633008467603E-02 
671	 9,44110001292512E-02 
672	 0,093886726387085 
673	 9,34405840066643E-02 
674	 9,29864577354137E-02 
675	 9,20636503284936E-02 
676	 9,19432764120371E-02 
677	 9,28440618376769E-02 
678	 9,30563009220862E-02 
679	 9,29708080527573E-02 
680	 9,32224218167349E-02 
681	 9,35342823340408E-02 
682	 9,39276235760429E-02 
683	 9,45318076617637E-02 
684	 9,55531395619932E-02 
685	 9,71327059040859E-02 
686	 9,92335910634533E-02 
687	 0,101690471953704 
688	 0,104196950164466 
689	 0,107469910601393 
690	 0,111688207456178 
691	 0,116494219528779 
692	 0,121793006125187 
693	 0,127575779444929 
694	 0,13472867071289 
695	 0,143108236006538 
696	 0,151891921602241 
697	 0,161621383204548 
698	 0,172399158386346 
699	 0,183682517267216 
700	 0,195509952824708 
701	 0,208009642246794 
702	 0,220171347967297 
703	 0,231893976526999 
704	 0,243936630361313 
705	 0,25593054724016 
706	 0,267591701346968 
707	 0,278629958737495 
708	 0,289127276322835 
709	 0,299333261478455 
710	 0,309153909627396 
711	 0,318530737050391 
712	 0,327418524123734 
713	 0,335671660297231 
714	 0,343140958353465 
715	 0,349994226997389 
716	 0,356450185325068 
717	 0,362930050632814 
718	 0,36911886679431 
719	 0,374838892425907 
720	 0,380033629312632 
721	 0,384616272998874 
722	 0,388506441550392 
723	 0,392376978726033 
724	 0,396303976887933 
725	 0,399915927872952 
726	 0,403036030409447 
727	 0,405611087867552 
728	 0,408150840161922 
729	 0,410575442265334 
730	 0,412617338361528 
731	 0,414327367800846 
732	 0,415816677344414 
733	 0,417475502313123 
734	 0,419051969946796 
735	 0,420320409824069 
736	 0,421492722447357 
737	 0,422683574774752 
738	 0,424122836720154 
739	 0,425269789918968 
740	 0,426003073712432 
741	 0,427019110402353 
742	 0,427816727619888 
743	 0,427785291753399 
744	 0,428447022343773 
745	 0,429804695722065 
746	 0,430800050384721 
747	 0,431370429468287 
748	 0,431539323827606 
749	 0,431938404417718 
750	 0,432518791813357 
751	 0,433069634829716 
752	 0,433634930842683 
753	 0,434113590767834 
754	 0,434123135773796 
755	 0,434181333062947 
756	 0,434647198184671 
757	 0,435015525690165 
758	 0,435426001002362 
759	 0,436410660867936 
760	 0,436686523473595 
761	 0,436150259583989 
762	 0,436493475500993 
763	 0,436969651176651 
764	 0,436836251266169 
765	 0,436934370893587 
766	 0,437298501961418 
767	 0,437631808367203 
768	 0,437823011026384 
769	 0,437870191426771 
770	 0,438112894742163 
771	 0,438497472197816 
772	 0,438914269646655 
773	 0,438988201353685 
774	 0,438766274475702 
775	 0,438604466170464 
776	 0,438846579230962 
777	 0,439501520961156 
778	 0,439173243053355 
779	 0,4386300025411 
780	 0,439215057983425 
781	 0,439695775411948 
782	 0,439789584513364 
783	 0,439713411514494 
784	 0,43970735922852 
785	 0,439931735201464 
786	 0,440287546587438 
787	 0,440502382842649 
788	 0,440104314388326 
789	 0,440038032405873 
790	 0,440447404055142 
791	 0,440642799516069 
792	 0,44059720864881 
793	 0,440334264146828 
794	 0,440193016189459 
795	 0,440193291694677 
796	 0,440222208365439 
797	 0,440315856908945 
798	 0,440474979412186 
799	 0,440717406381754 
800	 0,440822467518899 
801	 0,440605780446811 
802	 0,440392704977169 
803	 0,440379907855713 
804	 0,440923321774869 
805	 0,441265809050698 
806	 0,441223503746644 
807	 0,441581656244994 
808	 0,441911804663278 
809	 0,441736239968488 
810	 0,441923518834049 
811	 0,442372670832043 
812	 0,442266372669484 
813	 0,442266679832246 
814	 0,442560840227287 
815	 0,442516802949402 
816	 0,442348728602412 
817	 0,442371971263753 
818	 0,442458295188672 
819	 0,442664421672846 
820	 0,443267381540914 
821	 0,443703878612761 
822	 0,443703658675926 
823	 0,443490318512085 
824	 0,443410474619606 
825	 0,443861389111031 
826	 0,444630807365105 
827	 0,445319784198736 
828	 0,444865713687231 
829	 0,444598841035877 
830	 0,44509620378722 
831	 0,445085610865701 
832	 0,444930937491063 
833	 0,445299792051756 
834	 0,445464634864684 
835	 0,445337080645526 
836	 0,445210678451524 
837	 0,445221643909261 
838	 0,445436807653575 
839	 0,445654220501995 
840	 0,445915739430927 
841	 0,446314761222054 
842	 0,446512849525373 
843	 0,44643584848381 
844	 0,446108576652653 
845	 0,446012785435394 
846	 0,446364405684821 
847	 0,446608469145984 
848	 0,44662035482058 
849	 0,446333137218045 
850	 0,446106064303798 
851	 0,446122076161429 
852	 0,446655142102426 
853	 0,446924485160861 
854	 0,446550904457531 
855	 0,446147614939585 
856	 0,445975474411427 
857	 0,446273358170179 
858	 0,446355238137459 
859	 0,446224368594674 
860	 0,446518498361921 
861	 0,446723931516655 
862	 0,4466218067122 
863	 0,446640706488577 
864	 0,446792034814485 
865	 0,447023382541839 
866	 0,446789280814711 
867	 0,446369171757494 
868	 0,44705487462381 
869	 0,447576609155036 
870	 0,447380888043516 
871	 0,447114627290868 
872	 0,447040049797071 
873	 0,447383316290698 
874	 0,447774100910226 
875	 0,448122510738869 
876	 0,448496703389111 
877	 0,448616342960681 
878	 0,4484862785457 
879	 0,448791374310701 
880	 0,449443707930327 
881	 0,450221782819484 
882	 0,450007251989883 
883	 0,449227288439996 
884	 0,449586930907158 
885	 0,450134874911583 
886	 0,450549892436261 
887	 0,450988585968649 
888	 0,451160803305851 
889	 0,450881999944275 
890	 0,451388986433573 
891	 0,452135491335482 
892	 0,451339940161341 
893	 0,451390438893736 
894	 0,452537415984708 
895	 0,452212193492255 
896	 0,451790355563767 
897	 0,452296047299254 
898	 0,452063599397868 
899	 0,451556067347801 
900	 0,45203206339801 
901	 0,452232507988877 
902	 0,452081213612014 
903	 0,45276969883085 
904	 0,453146108948958 
905	 0,452569812656326 
906	 0,452057619777966 
907	 0,451683047636226 
908	 0,451356562821089 
909	 0,45173788778801 
910	 0,45263377760379 
911	 0,453055655301617 
912	 0,452876228435454 
913	 0,452174843459866 
914	 0,451867884533322 
915	 0,452019284755786 
916	 0,452521677025761 
917	 0,452020137012054 
918	 0,45100148426258 
919	 0,451514539764532 
920	 0,451404828116655 
921	 0,450426758861586 
922	 0,451188741230422 
923	 0,451821631364608 
924	 0,450846208112825 
925	 0,450702788686313 
926	 0,450788847647573 
927	 0,449337313256728 
928	 0,4480867109587 
929	 0,44734777370221 
930	 0,446026330971515 
931	 0,446118836407933 
932	 0,448200064391706 
933	 0,447840123443495 
934	 0,446286440015935 
935	 0,445776392310552 
936	 0,445331175835347 
937	 0,444833046788171 
938	 0,444461148035667 
939	 0,444038467919346 
940	 0,443270121953385 
941	 0,440975881558017 
942	 0,439311969212923 
943	 0,440059809435306 
944	 0,440486765166342 
945	 0,440314417784767 
946	 0,439970572186876 
947	 0,439190725276452 
948	 0,437914627948096 
949	 0,436216459143955 
950	 0,434003742588959 
951	 0,431547529432315 
952	 0,430631998948588 
953	 0,430288765005143 
954	 0,429148041247191 
955	 0,428404857984648 
956	 0,42770340365062 
957	 0,425499697122752 
958	 0,423693888403273 
959	 0,422910595330239 
960	 0,422758056311931 
961	 0,421820253565829 
962	 0,419459837763326 
963	 0,419795454984973 
964	 0,421224623176035 
965	 0,420467581167041 
966	 0,419626595431937 
967	 0,419381347516932 
968	 0,420548981879851 
969	 0,419872264751063 
970	 0,416781453952856 
971	 0,416268162634301 
972	 0,417228822222269 
973	 0,418280594130305 
974	 0,419415774805791 
975	 0,419895466690045 
976	 0,418568727762783 
977	 0,418343514638136 
978	 0,419038800907938 
979	 0,416566842280054 
980	 0,416288251167254 
981	 0,420017819805771 
982	 0,421764134260188 
983	 0,421447352985942 
984	 0,419680664229893 
985	 0,418271947350389 
986	 0,41809952828152 
987	 0,419975946964583 
988	 0,421408811968628 
989	 0,42172916455336 
990	 0,421765228327484 
991	 0,421453251737804 
992	 0,421027510996238 
993	 0,421614372105205 
994	 0,423013800491697 
995	 0,424755236359223 
996	 0,425299424864683 
997	 0,424982634131134 
998	 0,425090365228552 
999	 0,424781452401054 
1000	 0,42454499873134 
1001	 0,426652139081326 
1002	 0,429163320917277 
1003	 0,431044198981283 
1004	 0,433117696669669 
1005	 0,433413703156643 
1006	 0,430380228289748 
1007	 0,428219917993073 
1008	 0,427908154401857 
1009	 0,429528165083206 
1010	 0,432861636188283 
1011	 0,435994130430589 
1012	 0,433475377072128 
1013	 0,431222442204605 
1014	 0,431947265059907 
1015	 0,434671983464731 
1016	 0,435796850799759 
1017	 0,43294734914732 
1018	 0,432833261653205 
1019	 0,434499272168262 
1020	 0,435000802904288 
1021	 0,4349833400824 
1022	 0,434273512318301 
1023	 0,4317612613043 
1024	 0,432628757329842 
1025	 0,437196872782528 
1026	 0,437840289692937 
1027	 0,438368448577897 
1028	 0,441145592974171 
1029	 0,443710649720341 
1030	 0,444588203297071 
1031	 0,442638946289952 
1032	 0,441044493284942 
1033	 0,441989526367266 
1034	 0,448379572861119 
1035	 0,450114599084679 
1036	 0,446628770584534 
1037	 0,447091652209832 
1038	 0,447239791366964 
1039	 0,445714277632281 
1040	 0,445951742818622 
1041	 0,443538367411474 
1042	 0,436528667323435 
1043	 0,440078053356505 
1044	 0,448136231617908 
1045	 0,44958613342127 
1046	 0,444064722472672 
1047	 0,437654095224629 
1048	 0,445819106064086 
1049	 0,446876605149093 
1050	 0,43884259741879 
1051	 0,441123049566974 
1052	 0,442860509081412 
1053	 0,440276805984401 
1054	 0,444158265131874 
1055	 0,448841803503299 
1056	 0,448638034592383 
1057	 0,445490433878453 
1058	 0,440098929402749 
1059	 0,43340557378503 
1060	 0,436536430632372 
1061	 0,446617585067536 
1062	 0,451072709869576 
1063	 0,449273838306892 
1064	 0,444388420832537 
1065	 0,449709914370751 
1066	 0,454701499695066 
1067	 0,454051882025395 
1068	 0,448135385251855 
1069	 0,442458455029759 
1070	 0,440472153833301 
1071	 0,437274885033039 
1072	 0,433882459778795 
1073	 0,433236154558259 
1074	 0,449532308698531 
1075	 0,462200899382461 
