Wavelength	PENFOUL00518.asd
325	 0,100387826360111 
326	 0,246202389150818 
327	 0,334354246899354 
328	 0,26192301074596 
329	 0,336624954894582 
330	 0,389978830141489 
331	 0,305080102656632 
332	 0,313304155137737 
333	 0,370157102388978 
334	 0,315706699031479 
335	 0,270225185919476 
336	 0,266913568409361 
337	 0,281646599739187 
338	 0,2843209890835 
339	 0,255061491264983 
340	 0,272850812585121 
341	 0,308642212617323 
342	 0,288882413284775 
343	 0,28812505074261 
344	 0,322880609413527 
345	 0,336436207795812 
346	 0,300737359341532 
347	 0,214445816316839 
348	 0,281367247007082 
349	 0,41812221966541 
350	 0,337360599843919 
351	 0,256262020209891 
352	 0,254163390431515 
353	 0,287983051071537 
354	 0,304030143923042 
355	 0,261572271613601 
356	 0,252282427270385 
357	 0,279584004234952 
358	 0,292314401879546 
359	 0,290888337726602 
360	 0,28052832323822 
361	 0,292742341484012 
362	 0,318716755042288 
363	 0,337522783687548 
364	 0,335523876342244 
365	 0,318653940531846 
366	 0,315192460113624 
367	 0,330060185838057 
368	 0,357814045623108 
369	 0,33298764211567 
370	 0,296873067745847 
371	 0,340639652161793 
372	 0,341305422299753 
373	 0,290223213957669 
374	 0,313492140210362 
375	 0,351238254031696 
376	 0,362906452740325 
377	 0,358919196374723 
378	 0,347434475456394 
379	 0,34206929581505 
380	 0,329073280233901 
381	 0,312016803856474 
382	 0,321314014366708 
383	 0,335850171484861 
384	 0,335975730411022 
385	 0,326703242207839 
386	 0,317439265804975 
387	 0,329277021196539 
388	 0,340308415813047 
389	 0,344178177169784 
390	 0,362597659826266 
391	 0,374482849841475 
392	 0,353487846334489 
393	 0,338953609295968 
394	 0,337367911205842 
395	 0,339967097895096 
396	 0,343893737929326 
397	 0,346514767602506 
398	 0,343001973894475 
399	 0,34086512597942 
400	 0,352045901002353 
401	 0,352892213151285 
402	 0,3442384397395 
403	 0,353542259341176 
404	 0,35978254318259 
405	 0,351091267603671 
406	 0,352666740041388 
407	 0,360611362799698 
408	 0,360027354392054 
409	 0,355658445021716 
410	 0,351023143146358 
411	 0,354932586087348 
412	 0,360093086559742 
413	 0,35948373694593 
414	 0,3601094778443 
415	 0,361060332734345 
416	 0,356303636572695 
417	 0,353194314302885 
418	 0,354343336928648 
419	 0,355939661225649 
420	 0,356982832065905 
421	 0,356705143902108 
422	 0,360413460210666 
423	 0,366763953272943 
424	 0,367863145597112 
425	 0,365038883422348 
426	 0,360020068730487 
427	 0,359196329646189 
428	 0,360982124602808 
429	 0,360850354329538 
430	 0,361197836578341 
431	 0,362320657869852 
432	 0,362517696740103 
433	 0,364046026785146 
434	 0,36842019066767 
435	 0,366510951441407 
436	 0,361029966719047 
437	 0,363065909139213 
438	 0,365172578394962 
439	 0,364970803940966 
440	 0,366762074573194 
441	 0,369080360506673 
442	 0,369693000429915 
443	 0,366673675836459 
444	 0,361965432577142 
445	 0,363232608155733 
446	 0,365877589744862 
447	 0,367085442871588 
448	 0,369504636588329 
449	 0,371117276321314 
450	 0,3672981238738 
451	 0,366136264626 
452	 0,369468787038795 
453	 0,373268482073588 
454	 0,375200385244104 
455	 0,373485016212201 
456	 0,371818177296192 
457	 0,371021471485632 
458	 0,370979933180436 
459	 0,371283337050936 
460	 0,371783511346504 
461	 0,373066925975681 
462	 0,374191585683892 
463	 0,373884271165263 
464	 0,373479579047684 
465	 0,373864929271423 
466	 0,377021721099723 
467	 0,379030604490381 
468	 0,377470382338553 
469	 0,374871466748325 
470	 0,373455563893399 
471	 0,376782242672454 
472	 0,379446935616989 
473	 0,379824834263373 
474	 0,380048095531559 
475	 0,379545605179114 
476	 0,377786023004477 
477	 0,377582370798415 
478	 0,378447142570822 
479	 0,377143778426064 
480	 0,376737946476297 
481	 0,378275642515579 
482	 0,378368830188597 
483	 0,37833289461686 
484	 0,380731707617696 
485	 0,380575617384505 
486	 0,377670251239465 
487	 0,376343682730334 
488	 0,376390373291342 
489	 0,377434911060199 
490	 0,37750277044795 
491	 0,377021729810195 
492	 0,377899950318684 
493	 0,378418443125692 
494	 0,378007267368129 
495	 0,376872929862417 
496	 0,376443783683495 
497	 0,378219341516193 
498	 0,37874422190848 
499	 0,378056054402188 
500	 0,378797180553085 
501	 0,380120680019773 
502	 0,381416665358091 
503	 0,382100523180099 
504	 0,381704533535297 
505	 0,379376698095103 
506	 0,378863085699142 
507	 0,3807913538638 
508	 0,382548780966121 
509	 0,382767787045723 
510	 0,380672203584042 
511	 0,382156587584903 
512	 0,38593701304054 
513	 0,385765131135862 
514	 0,385229774522719 
515	 0,385793382175945 
516	 0,386594418026469 
517	 0,387160211671229 
518	 0,386940530180194 
519	 0,386992285135506 
520	 0,387217057004403 
521	 0,38607908626636 
522	 0,385297925485044 
523	 0,386006257498874 
524	 0,386079686578609 
525	 0,385729199326082 
526	 0,386241469453177 
527	 0,386698058708527 
528	 0,386705012287873 
529	 0,385964924918695 
530	 0,385199487710092 
531	 0,385229691498977 
532	 0,385075353428444 
533	 0,384865947154007 
534	 0,385871853913988 
535	 0,386261372236118 
536	 0,385162890056451 
537	 0,384990856314585 
538	 0,38558559337866 
539	 0,386077398033822 
540	 0,38626418737532 
541	 0,386008667747476 
542	 0,38516109136998 
543	 0,384647316281004 
544	 0,385307317862212 
545	 0,385748885171903 
546	 0,385792256495775 
547	 0,385871940414901 
548	 0,385611729640439 
549	 0,385089375442453 
550	 0,386011676682317 
551	 0,387516011053494 
552	 0,388044764013276 
553	 0,387869722621167 
554	 0,387294372707487 
555	 0,387319107904237 
556	 0,387438913713729 
557	 0,387227046388008 
558	 0,387031615459182 
559	 0,386987816466044 
560	 0,387483280808186 
561	 0,386911196893327 
562	 0,385096608007028 
563	 0,385330907025967 
564	 0,386052410453639 
565	 0,384818297682181 
566	 0,384700652277404 
567	 0,385978777992124 
568	 0,38689507006575 
569	 0,387176066219281 
570	 0,386817782948508 
571	 0,387822220571468 
572	 0,38973875549277 
573	 0,390969027279182 
574	 0,391656800617567 
575	 0,392024351281009 
576	 0,393235379994758 
577	 0,394763302362618 
578	 0,395926209111225 
579	 0,397088471439161 
580	 0,398196160619885 
581	 0,398815919757202 
582	 0,399603168361328 
583	 0,400945420612094 
584	 0,402699858149659 
585	 0,404230935544632 
586	 0,404433799583502 
587	 0,405390611155887 
588	 0,407230190130042 
589	 0,407391544683433 
590	 0,407526329836704 
591	 0,409163205239514 
592	 0,409840641322894 
593	 0,409667554614241 
594	 0,410272222287367 
595	 0,410908000104338 
596	 0,41123649631436 
597	 0,411335301487978 
598	 0,411179752480453 
599	 0,410724033341348 
600	 0,410304025543872 
601	 0,410025301584655 
602	 0,409779742590912 
603	 0,409705712284392 
604	 0,409850259337249 
605	 0,409481196462848 
606	 0,408741162792377 
607	 0,408339878214475 
608	 0,407602089057252 
609	 0,406567047412633 
610	 0,406970331823339 
611	 0,407308984531946 
612	 0,405601239403595 
613	 0,403908207919799 
614	 0,402994787936243 
615	 0,403474158872808 
616	 0,404157468132557 
617	 0,404262760358576 
618	 0,404418760680124 
619	 0,404570498824502 
620	 0,404507196904757 
621	 0,403961538919801 
622	 0,403130394988804 
623	 0,403371852419893 
624	 0,403690699421272 
625	 0,403049386357487 
626	 0,403503461435853 
627	 0,404825118652366 
628	 0,405031599073831 
629	 0,405442403460027 
630	 0,406550413293716 
631	 0,40685524051508 
632	 0,406792855905618 
633	 0,407313970379666 
634	 0,408243091802503 
635	 0,409417440319269 
636	 0,410339861829706 
637	 0,411103252412923 
638	 0,411842709506426 
639	 0,413120788397462 
640	 0,414567709917738 
641	 0,414978286447133 
642	 0,415390561571643 
643	 0,416208321519547 
644	 0,417161742952372 
645	 0,417997787547704 
646	 0,418431317594799 
647	 0,418236718466026 
648	 0,417641996216517 
649	 0,417636585287044 
650	 0,417439230194877 
651	 0,416577109186579 
652	 0,415823793552378 
653	 0,415159734232309 
654	 0,414231802389146 
655	 0,413799031365583 
656	 0,4137719588599 
657	 0,412469880030993 
658	 0,410824251609161 
659	 0,409873634475833 
660	 0,408453324066473 
661	 0,406599417591701 
662	 0,405038123346223 
663	 0,403791719565279 
664	 0,40287191223028 
665	 0,402162754947014 
666	 0,401366463298858 
667	 0,40005880363554 
668	 0,398808920050374 
669	 0,397933861464331 
670	 0,397868291633654 
671	 0,39800248453015 
672	 0,397831123127678 
673	 0,39762814167528 
674	 0,397388573884374 
675	 0,396914878927714 
676	 0,396932047303629 
677	 0,397518834811374 
678	 0,397395314665848 
679	 0,39720123312229 
680	 0,39780457478384 
681	 0,398365979713359 
682	 0,398762628121289 
683	 0,399136966365452 
684	 0,400092323660751 
685	 0,40191816072794 
686	 0,403621020625112 
687	 0,405571701037627 
688	 0,408673063243869 
689	 0,41206541006463 
690	 0,415678193417938 
691	 0,420271874788943 
692	 0,425737813560676 
693	 0,431948749258607 
694	 0,438900806277737 
695	 0,446420311873764 
696	 0,454159936559554 
697	 0,462426951213868 
698	 0,4713280601399 
699	 0,480815939724825 
700	 0,490685416364042 
701	 0,500695282647769 
702	 0,510222205313866 
703	 0,519219828553494 
704	 0,52832567290657 
705	 0,536947172914029 
706	 0,544778081404982 
707	 0,552572991195613 
708	 0,560210434582225 
709	 0,567283222261691 
710	 0,573763980290198 
711	 0,579724623324581 
712	 0,58562949311451 
713	 0,591107599972649 
714	 0,595795370100137 
715	 0,600055340356605 
716	 0,604107220584723 
717	 0,608287321423744 
718	 0,612304080351824 
719	 0,615941052253224 
720	 0,618831630896907 
721	 0,621253535732206 
722	 0,623607160063116 
723	 0,626133224624895 
724	 0,62871105571561 
725	 0,630712805326384 
726	 0,632367635824933 
727	 0,633867500982743 
728	 0,635533905140564 
729	 0,637117045286005 
730	 0,638087447491346 
731	 0,638934710865186 
732	 0,639833819726453 
733	 0,640779200497931 
734	 0,641797937505368 
735	 0,642876825741621 
736	 0,643565478187352 
737	 0,644051413466795 
738	 0,645066700561002 
739	 0,645770090776412 
740	 0,64596442984693 
741	 0,646504449844086 
742	 0,646993990926667 
743	 0,646910001269807 
744	 0,646829715940736 
745	 0,647013693807509 
746	 0,647887322399615 
747	 0,648322493693468 
748	 0,647855812577465 
749	 0,64798906653652 
750	 0,648435150887199 
751	 0,648473719536196 
752	 0,648471542468035 
753	 0,648480733691686 
754	 0,648350519323635 
755	 0,648196307282937 
756	 0,648126492588598 
757	 0,648306190329867 
758	 0,648568943046803 
759	 0,648543607767411 
760	 0,648428306619299 
761	 0,648289373118431 
762	 0,648116119122199 
763	 0,647994518231667 
764	 0,648015271947002 
765	 0,648377860706605 
766	 0,64883087939888 
767	 0,648662453648762 
768	 0,648381602729324 
769	 0,648238795879791 
770	 0,648359586096043 
771	 0,648664726425828 
772	 0,649025505252328 
773	 0,648651818835734 
774	 0,647819124942651 
775	 0,647883919486005 
776	 0,648262958624887 
777	 0,648564029300939 
778	 0,648284659213602 
779	 0,647778146517478 
780	 0,647643051470302 
781	 0,647730168847901 
782	 0,64795793104401 
783	 0,648178937742507 
784	 0,648232131646758 
785	 0,648040178954594 
786	 0,647936479137448 
787	 0,647898605373247 
788	 0,647789592802292 
789	 0,647723214543818 
790	 0,647689777082187 
791	 0,647528419261188 
792	 0,64729786016511 
793	 0,647058577798422 
794	 0,646879939739077 
795	 0,64673636401458 
796	 0,646483462481218 
797	 0,646703288256371 
798	 0,647358054685473 
799	 0,647336031246929 
800	 0,6469724289048 
801	 0,646670422429854 
802	 0,646785308902222 
803	 0,6470907135001 
804	 0,646782479455821 
805	 0,646601211681189 
806	 0,64678145411323 
807	 0,647053170172962 
808	 0,64711969464383 
809	 0,64672041102067 
810	 0,646616988533871 
811	 0,64681143871741 
812	 0,646849247733765 
813	 0,646746093157991 
814	 0,646548816396261 
815	 0,646568465671471 
816	 0,646703541042932 
817	 0,64680029665477 
818	 0,647002963236169 
819	 0,647260264156568 
820	 0,647340648768232 
821	 0,647456827807474 
822	 0,647646985039757 
823	 0,647470299727228 
824	 0,64724480468447 
825	 0,647424074698703 
826	 0,647809810159659 
827	 0,648180220978838 
828	 0,64804758912348 
829	 0,64770959603112 
830	 0,647389109304088 
831	 0,647350455506474 
832	 0,647593593964814 
833	 0,648061893484288 
834	 0,647846786003651 
835	 0,647092489331629 
836	 0,647029808264663 
837	 0,647266753510302 
838	 0,647542544837673 
839	 0,647527358495837 
840	 0,647501927373788 
841	 0,647915459298807 
842	 0,648187648211378 
843	 0,648084229196913 
844	 0,647271905172513 
845	 0,646945344302584 
846	 0,647619982626671 
847	 0,647825904713335 
848	 0,647604415668503 
849	 0,64726944970286 
850	 0,647112482125067 
851	 0,647163529846888 
852	 0,647224985355643 
853	 0,647042966030029 
854	 0,646602711508465 
855	 0,646816480116958 
856	 0,647344706292518 
857	 0,647584339744493 
858	 0,647364442006353 
859	 0,646859548170265 
860	 0,646775910730148 
861	 0,646812583876649 
862	 0,646843660334956 
863	 0,64702800418619 
864	 0,647419652453215 
865	 0,648053020991561 
866	 0,647748101958553 
867	 0,646909305772773 
868	 0,647759551609478 
869	 0,648030369923634 
870	 0,64698459980427 
871	 0,647194792715313 
872	 0,647903872574517 
873	 0,647925167813476 
874	 0,647750617974462 
875	 0,647574335933274 
876	 0,647660781303107 
877	 0,647860850854679 
878	 0,648059509112602 
879	 0,64802352051393 
880	 0,647924719300731 
881	 0,647939029127438 
882	 0,647289997849205 
883	 0,646432729269852 
884	 0,646960666369625 
885	 0,647438066369654 
886	 0,647373782074074 
887	 0,647148800858835 
888	 0,647003332451172 
889	 0,647145134938041 
890	 0,647544276632383 
891	 0,647823214603776 
892	 0,647144804409886 
893	 0,646938588724004 
894	 0,64740042115447 
895	 0,64713084941691 
896	 0,646709338407212 
897	 0,646621739324028 
898	 0,646494126425217 
899	 0,646699480085347 
900	 0,648028036327758 
901	 0,648317497655751 
902	 0,647408406585722 
903	 0,647241800989907 
904	 0,647469103974045 
905	 0,647780161552852 
906	 0,647592525433096 
907	 0,647124730948521 
908	 0,646803476248261 
909	 0,646985266647486 
910	 0,647419304849736 
911	 0,646975127055366 
912	 0,64664641718009 
913	 0,64689659960086 
914	 0,647433105982967 
915	 0,647953706000359 
916	 0,648125568480925 
917	 0,647467104116698 
918	 0,646454368183975 
919	 0,646475177644316 
920	 0,646614186017787 
921	 0,646722263306327 
922	 0,647715385684871 
923	 0,648216183442267 
924	 0,647233834133524 
925	 0,647060721186936 
926	 0,647462417059574 
927	 0,647354624853468 
928	 0,646624098172786 
929	 0,645781432857794 
930	 0,646947577543454 
931	 0,647686885626673 
932	 0,646753894624024 
933	 0,646413231099638 
934	 0,646198691222869 
935	 0,645250866084686 
936	 0,64544883161756 
937	 0,646314389950396 
938	 0,64520447582526 
939	 0,644763357765478 
940	 0,645624510245821 
941	 0,645543894147191 
942	 0,645214403055451 
943	 0,645292051087411 
944	 0,644809833636239 
945	 0,64409640200359 
946	 0,644026100960443 
947	 0,643896039303369 
948	 0,643490841595843 
949	 0,642756558335316 
950	 0,642231834679543 
951	 0,642145238883853 
952	 0,641683637470513 
953	 0,641304129190727 
954	 0,641620568591841 
955	 0,641943649609685 
956	 0,641830250557628 
957	 0,640421130754479 
958	 0,640107244626383 
959	 0,64117671759797 
960	 0,640922764062055 
961	 0,639336932827339 
962	 0,637021999622705 
963	 0,638394282139552 
964	 0,640904043202213 
965	 0,639795909030245 
966	 0,638625015647737 
967	 0,638540804246619 
968	 0,640522448854117 
969	 0,641140096351491 
970	 0,639237926637895 
971	 0,637442693809597 
972	 0,636823757885129 
973	 0,63800311332966 
974	 0,638817507167313 
975	 0,638828628123189 
976	 0,63803402992867 
977	 0,637205574326276 
978	 0,637285080437298 
979	 0,640646898751649 
980	 0,642823187023876 
981	 0,641796845114613 
982	 0,640412949441477 
983	 0,640056976371865 
984	 0,641593866229917 
985	 0,640774358758797 
986	 0,638834632222331 
987	 0,639705081466445 
988	 0,640174769624088 
989	 0,639741766621164 
990	 0,639982031585535 
991	 0,640307918743782 
992	 0,64061361699822 
993	 0,642262799403103 
994	 0,643460659532797 
995	 0,64244237994364 
996	 0,64221405997017 
997	 0,643358614710094 
998	 0,64601600409199 
999	 0,645151915773303 
1000	 0,641500966570724 
1001	 0,643255427203796 
1002	 0,645321923039041 
1003	 0,645363782623525 
1004	 0,645990577935958 
1005	 0,646005978214972 
1006	 0,644261048209832 
1007	 0,642646079551416 
1008	 0,642031521802312 
1009	 0,643186077168096 
1010	 0,644610745805331 
1011	 0,645604760170593 
1012	 0,645495349767509 
1013	 0,64599210185437 
1014	 0,647404875812157 
1015	 0,647064114238468 
1016	 0,646485659519421 
1017	 0,647164494716394 
1018	 0,649839175531943 
1019	 0,651308442268111 
1020	 0,647033615159505 
1021	 0,645815283711662 
1022	 0,647987580032176 
1023	 0,648152765104647 
1024	 0,647351048369722 
1025	 0,646161784429299 
1026	 0,645836318637004 
1027	 0,64798754275372 
1028	 0,652630856938892 
1029	 0,653254181136097 
1030	 0,650446656351183 
1031	 0,646408358604207 
1032	 0,648090372253296 
1033	 0,653554984309161 
1034	 0,65585622215734 
1035	 0,655701678448653 
1036	 0,65434785102736 
1037	 0,657088568829962 
1038	 0,65302740250799 
1039	 0,641906497049011 
1040	 0,64883537483582 
1041	 0,655111377432121 
1042	 0,646604685824915 
1043	 0,649029534596339 
1044	 0,654551437813481 
1045	 0,648557795625905 
1046	 0,647057395326007 
1047	 0,651328682547862 
1048	 0,655950835832607 
1049	 0,656497671689 
1050	 0,65300433201117 
1051	 0,651736495021492 
1052	 0,653696594979057 
1053	 0,656649580792112 
1054	 0,644787371536563 
1055	 0,6382433759828 
1056	 0,652657333482775 
1057	 0,655635898503607 
1058	 0,650530357545523 
1059	 0,648457638642545 
1060	 0,65016615201117 
1061	 0,653095873940145 
1062	 0,650100205656097 
1063	 0,649813698539397 
1064	 0,651482365509981 
1065	 0,640481404479779 
1066	 0,645693873636168 
1067	 0,669520107445199 
1068	 0,65154798870771 
1069	 0,631380018430583 
1070	 0,63817723459775 
1071	 0,650982912544354 
1072	 0,65336658487016 
1073	 0,631864912345741 
1074	 0,636085701667327 
1075	 0,652835012973207 
