Wavelength	PENFOUL00030.asd
325	 0,258538824922374 
326	 0,286492821952641 
327	 0,372717685390154 
328	 0,418060096041044 
329	 0,316778571060364 
330	 0,25344912735706 
331	 0,35048877244584 
332	 0,349608967572057 
333	 0,28700519755925 
334	 0,297382547231113 
335	 0,29673185736212 
336	 0,256014734201085 
337	 0,147062054035919 
338	 0,113413518863665 
339	 0,263294262172691 
340	 0,283938548954068 
341	 0,236300203753233 
342	 0,322884169609257 
343	 0,316461033604048 
344	 0,177252118697231 
345	 0,187683224180325 
346	 0,221994811219102 
347	 0,147304270744294 
348	 0,166491118854228 
349	 0,243634412318786 
350	 0,220854752234839 
351	 0,189589922681051 
352	 0,184742092085242 
353	 0,200172034268036 
354	 0,217137821063402 
355	 0,221355615072404 
356	 0,224021636850418 
357	 0,22300976575424 
358	 0,206039588638314 
359	 0,190808721670356 
360	 0,185498085746362 
361	 0,201080742300583 
362	 0,217096489046935 
363	 0,20163117833444 
364	 0,200361174742199 
365	 0,215078977312032 
366	 0,212016720526293 
367	 0,217473450603248 
368	 0,241477470110351 
369	 0,227474048442907 
370	 0,203296662690688 
371	 0,232570340055986 
372	 0,233136599311915 
373	 0,202750187991564 
374	 0,24280328661189 
375	 0,269573242826006 
376	 0,231246442259827 
377	 0,21973969077384 
378	 0,231554918431961 
379	 0,221229177264746 
380	 0,221996224586792 
381	 0,236170439115662 
382	 0,222013447251606 
383	 0,207845807780788 
384	 0,218951000598069 
385	 0,219991787082108 
386	 0,21266659980268 
387	 0,2179599589301 
388	 0,229767166572155 
389	 0,242425767795258 
390	 0,241936892369724 
391	 0,236013506898762 
392	 0,23502541285533 
393	 0,226504378055554 
394	 0,213752063183657 
395	 0,211644301043465 
396	 0,218211279981382 
397	 0,229879666872931 
398	 0,230211255162936 
399	 0,226610897777431 
400	 0,233373119238989 
401	 0,22717584509147 
402	 0,211227607549003 
403	 0,219578308092572 
404	 0,231397561736936 
405	 0,232492508715306 
406	 0,227683842476008 
407	 0,223081140494697 
408	 0,231459362856078 
409	 0,229599167655879 
410	 0,216667548739062 
411	 0,220437712530402 
412	 0,226900268222265 
413	 0,222223527807556 
414	 0,21733629898806 
415	 0,215933769382535 
416	 0,223366817537221 
417	 0,226120091210206 
418	 0,220767893109103 
419	 0,223069994892871 
420	 0,226423309951184 
421	 0,221133521667059 
422	 0,222182702313513 
423	 0,228396844827781 
424	 0,223507521616214 
425	 0,219639839456804 
426	 0,222987184962927 
427	 0,220971913185243 
428	 0,216311408280013 
429	 0,216428931929476 
430	 0,219238308993673 
431	 0,222821003139372 
432	 0,221662246672267 
433	 0,219473920315795 
434	 0,21958166979523 
435	 0,219015559671308 
436	 0,218719348248371 
437	 0,222453021026583 
438	 0,225981794880184 
439	 0,22715373677395 
440	 0,22519261507644 
441	 0,222001065526382 
442	 0,220039360581752 
443	 0,219281505978176 
444	 0,219490749936042 
445	 0,219765568479414 
446	 0,219596438248324 
447	 0,219074834524906 
448	 0,222213761332643 
449	 0,225960167772313 
450	 0,22336066561669 
451	 0,223143239060263 
452	 0,226648168148655 
453	 0,227098677925127 
454	 0,226087040594215 
455	 0,225367869369176 
456	 0,224544885420748 
457	 0,223420991489451 
458	 0,220887022301671 
459	 0,221509717431435 
460	 0,22602794771702 
461	 0,22569158661625 
462	 0,224141726780037 
463	 0,227290795424321 
464	 0,227801823336266 
465	 0,225340266334294 
466	 0,225095924249025 
467	 0,226027341411702 
468	 0,227339852877281 
469	 0,228534147302625 
470	 0,229007433922883 
471	 0,227716343348747 
472	 0,227173334494589 
473	 0,228202578162674 
474	 0,230528698977668 
475	 0,231404279309224 
476	 0,228392186021201 
477	 0,226495944191989 
478	 0,226402523591978 
479	 0,226835945867701 
480	 0,227264944780667 
481	 0,227412905646881 
482	 0,227868408474233 
483	 0,228177966554488 
484	 0,2275696688109 
485	 0,227982102908277 
486	 0,229377058004107 
487	 0,229533570517046 
488	 0,229590104003437 
489	 0,230330849201762 
490	 0,230266600465721 
491	 0,229639579046687 
492	 0,229708680395061 
493	 0,228520842754135 
494	 0,226169009217513 
495	 0,226749335363319 
496	 0,228113933645418 
497	 0,227549430045155 
498	 0,227520930779673 
499	 0,228118989186966 
500	 0,227692348253747 
501	 0,228424378413115 
502	 0,231142077472801 
503	 0,232289368324988 
504	 0,231811813784317 
505	 0,23033413335286 
506	 0,229828768720957 
507	 0,230956444039783 
508	 0,233478526098516 
509	 0,234945251431048 
510	 0,233496534773624 
511	 0,234697032377773 
512	 0,23759161174517 
513	 0,236757512093186 
514	 0,236551751988151 
515	 0,238384574763596 
516	 0,238542333693713 
517	 0,237930471560826 
518	 0,238297653353269 
519	 0,238473970107668 
520	 0,238568039249544 
521	 0,240077468995976 
522	 0,241163946109516 
523	 0,240600197555397 
524	 0,240429674383258 
525	 0,240716593509576 
526	 0,240813123760585 
527	 0,240993769947188 
528	 0,241291231965461 
529	 0,241624609321723 
530	 0,241409775763829 
531	 0,240032852809063 
532	 0,239682018893725 
533	 0,240313526352406 
534	 0,240112981623887 
535	 0,239634108797043 
536	 0,239243032399982 
537	 0,23916246753557 
538	 0,239327973255466 
539	 0,239608788415158 
540	 0,239386004348447 
541	 0,238750456056692 
542	 0,239026232196037 
543	 0,239819866820232 
544	 0,240642772510695 
545	 0,240918766032175 
546	 0,240725999765821 
547	 0,240683340146934 
548	 0,240576084144076 
549	 0,24040679038015 
550	 0,240768364442951 
551	 0,241352328779916 
552	 0,241642864395174 
553	 0,241045641365974 
554	 0,239890460745976 
555	 0,240141496733584 
556	 0,240873374322294 
557	 0,241235450114847 
558	 0,241254226074323 
559	 0,24077697176737 
560	 0,23938571659098 
561	 0,238256654855381 
562	 0,237867671657264 
563	 0,237652160446028 
564	 0,237301372115639 
565	 0,23648826270742 
566	 0,235947034983929 
567	 0,235966278740777 
568	 0,236758171328502 
569	 0,237686879568614 
570	 0,238334397395105 
571	 0,239249259693207 
572	 0,240559395974212 
573	 0,242473401624414 
574	 0,243815450069411 
575	 0,24440557197462 
576	 0,245862302201328 
577	 0,247403805465237 
578	 0,248066179059049 
579	 0,249339341945318 
580	 0,251287006708686 
581	 0,253045100820625 
582	 0,25458165271614 
583	 0,255810876953662 
584	 0,2563389718529 
585	 0,256908560723228 
586	 0,258905751490099 
587	 0,260573509960718 
588	 0,261535911202451 
589	 0,262762251294247 
590	 0,264165543389072 
591	 0,265540979687898 
592	 0,265422854940315 
593	 0,264424620061365 
594	 0,26499270466717 
595	 0,265469024701985 
596	 0,265283337917424 
597	 0,266004741976505 
598	 0,266742601570343 
599	 0,265949903966289 
600	 0,265215015123085 
601	 0,264913966771837 
602	 0,264623032805963 
603	 0,264284863921425 
604	 0,263842974214605 
605	 0,263172950237316 
606	 0,262409774257524 
607	 0,261990932549165 
608	 0,261115959077316 
609	 0,25985536036051 
610	 0,260549838875792 
611	 0,261167580165449 
612	 0,259028439889613 
613	 0,257647256282187 
614	 0,257500331446869 
615	 0,257036611465422 
616	 0,256651611181696 
617	 0,25655796746002 
618	 0,25647835186628 
619	 0,256258943877126 
620	 0,255672412109464 
621	 0,255209927438668 
622	 0,254982734139314 
623	 0,254586757190927 
624	 0,254224331933614 
625	 0,254146875552575 
626	 0,254983473736206 
627	 0,256188422470371 
628	 0,255848607425161 
629	 0,255359418644727 
630	 0,255545442481251 
631	 0,256740333066135 
632	 0,258122521511925 
633	 0,258319780070458 
634	 0,25860075962537 
635	 0,259312583477201 
636	 0,260174672052381 
637	 0,261318112243973 
638	 0,262820389874327 
639	 0,264260877830365 
640	 0,26537353550319 
641	 0,265664427710592 
642	 0,266297209005621 
643	 0,267551610433043 
644	 0,267934154594204 
645	 0,267881130810531 
646	 0,268134227988043 
647	 0,268299433930299 
648	 0,268203021941116 
649	 0,267502635015341 
650	 0,26699613508205 
651	 0,267075972621269 
652	 0,26615815105557 
653	 0,264382315625006 
654	 0,262420410934202 
655	 0,261051018820861 
656	 0,260303660932703 
657	 0,258716953178881 
658	 0,256633647763688 
659	 0,254526327415535 
660	 0,252628590278862 
661	 0,250944393906171 
662	 0,249287264423942 
663	 0,247608928938193 
664	 0,245845049068141 
665	 0,243826439058829 
666	 0,241824115776676 
667	 0,240223865221841 
668	 0,239391086357523 
669	 0,23923995132646 
670	 0,23901858823378 
671	 0,238703102597317 
672	 0,238267099210692 
673	 0,237501442935738 
674	 0,236632797757589 
675	 0,23615845607408 
676	 0,236249173919413 
677	 0,236777402269739 
678	 0,236590595980896 
679	 0,236214799104115 
680	 0,2363854354113 
681	 0,236760204225459 
682	 0,237352648256663 
683	 0,238393121943432 
684	 0,239604132059566 
685	 0,240939642396794 
686	 0,243381265961298 
687	 0,246469432407438 
688	 0,249163785662857 
689	 0,252272293950657 
690	 0,256208453780116 
691	 0,261473160185734 
692	 0,267587232640503 
693	 0,274104442660429 
694	 0,281288976316421 
695	 0,28903701728537 
696	 0,297008204400855 
697	 0,305645006802739 
698	 0,315114187860757 
699	 0,32534517076026 
700	 0,335890986991575 
701	 0,346213480671499 
702	 0,356389899108496 
703	 0,366392712408598 
704	 0,376266973848365 
705	 0,385768161655798 
706	 0,394760318284883 
707	 0,403471916370581 
708	 0,41190838948083 
709	 0,420024071174378 
710	 0,427740215166902 
711	 0,434973485313099 
712	 0,441585956622736 
713	 0,447672188571072 
714	 0,453328399645854 
715	 0,458882901439178 
716	 0,464294370410067 
717	 0,469315775104954 
718	 0,473826175908303 
719	 0,477753383109689 
720	 0,481168850302627 
721	 0,484215490716093 
722	 0,487062321262348 
723	 0,490066557786616 
724	 0,493104626571261 
725	 0,49548704761982 
726	 0,497379283581635 
727	 0,498977372777909 
728	 0,500961413200134 
729	 0,502945167523254 
730	 0,504084953394202 
731	 0,504834286129721 
732	 0,50551644141865 
733	 0,506812907586897 
734	 0,508221515224498 
735	 0,509245000411267 
736	 0,509634206884093 
737	 0,509757799060216 
738	 0,510635682261953 
739	 0,511506909736998 
740	 0,512107252774885 
741	 0,51267888523463 
742	 0,513136127905921 
743	 0,513369706579772 
744	 0,513649244737504 
745	 0,514006462039087 
746	 0,514360193527317 
747	 0,51447072486987 
748	 0,514296732164576 
749	 0,514551352523583 
750	 0,514988963032557 
751	 0,515094654219765 
752	 0,515341902859569 
753	 0,515683355368801 
754	 0,515458031456768 
755	 0,515259973931371 
756	 0,515485132659606 
757	 0,515411080383183 
758	 0,515290590666624 
759	 0,515939536229895 
760	 0,515915172374075 
761	 0,515073484309312 
762	 0,51511808936888 
763	 0,515427165919132 
764	 0,515347885037414 
765	 0,515280926960585 
766	 0,515309598028365 
767	 0,515523499266158 
768	 0,515486936248035 
769	 0,515115270204597 
770	 0,515009907298325 
771	 0,515170453462593 
772	 0,515515420336187 
773	 0,515393521269663 
774	 0,5148660880472 
775	 0,514518585961728 
776	 0,514761901745368 
777	 0,515568329830983 
778	 0,515018914400009 
779	 0,514094088092262 
780	 0,514534496090134 
781	 0,514862629687394 
782	 0,514768233813309 
783	 0,514607439885398 
784	 0,514419439952299 
785	 0,514253982323613 
786	 0,514224134277069 
787	 0,514244040021683 
788	 0,51414205919266 
789	 0,513920069573942 
790	 0,51365465097717 
791	 0,513712877756883 
792	 0,513575900310108 
793	 0,512885442423937 
794	 0,51246262718368 
795	 0,512415550544407 
796	 0,512685180775632 
797	 0,51281172444619 
798	 0,512615767569458 
799	 0,512203588478998 
800	 0,511819358147342 
801	 0,511696007592564 
802	 0,511859464705786 
803	 0,512117486684321 
804	 0,511957913278482 
805	 0,511959559324784 
806	 0,51225316483694 
807	 0,512333013983879 
808	 0,512258692996913 
809	 0,512143169949959 
810	 0,512221436944409 
811	 0,512323175239733 
812	 0,511744512325942 
813	 0,511552326984946 
814	 0,512096945853212 
815	 0,512536614904458 
816	 0,512561254487826 
817	 0,511928572089371 
818	 0,511420112062346 
819	 0,511306147862639 
820	 0,511761463139481 
821	 0,512177338222945 
822	 0,512219817177271 
823	 0,511978326422514 
824	 0,51171660443419 
825	 0,511758917751252 
826	 0,512266515586755 
827	 0,512901339610854 
828	 0,51252394800994 
829	 0,511979439940571 
830	 0,511771656316807 
831	 0,511993600378697 
832	 0,512400818218119 
833	 0,512640473371072 
834	 0,512429222000782 
835	 0,511888682301781 
836	 0,511587019424631 
837	 0,511765021769667 
838	 0,512429941135568 
839	 0,51260354796398 
840	 0,512468880270734 
841	 0,512459003068513 
842	 0,512258201507918 
843	 0,511921755550823 
844	 0,511773228689344 
845	 0,511966231205904 
846	 0,512486635976996 
847	 0,512654920255732 
848	 0,512437933709393 
849	 0,511919430544235 
850	 0,512019982379151 
851	 0,512635863018301 
852	 0,512609325372782 
853	 0,512336870873123 
854	 0,51203937335871 
855	 0,511709713444217 
856	 0,511455393146848 
857	 0,511404614099784 
858	 0,511252294029719 
859	 0,511050364007738 
860	 0,511263021959382 
861	 0,511270676930249 
862	 0,510865848473004 
863	 0,510941976617498 
864	 0,511329791257328 
865	 0,511676405816255 
866	 0,511536323152883 
867	 0,51105195295065 
868	 0,511014484816757 
869	 0,51103613147341 
870	 0,51097814447311 
871	 0,511128388441023 
872	 0,511301213766627 
873	 0,511252700692852 
874	 0,511122227367711 
875	 0,511123026129004 
876	 0,511811694366962 
877	 0,512267246837639 
878	 0,512099487801574 
879	 0,511556719281118 
880	 0,511396376637494 
881	 0,512297038877293 
882	 0,511900703889448 
883	 0,510748465982918 
884	 0,511600134343195 
885	 0,512248027436669 
886	 0,511992039515925 
887	 0,511488445591647 
888	 0,511423900517969 
889	 0,512290995981282 
890	 0,512438381829617 
891	 0,511877176290634 
892	 0,511269739041724 
893	 0,511252423583981 
894	 0,511806919718231 
895	 0,511632729415198 
896	 0,511539602170022 
897	 0,512089516478486 
898	 0,51197686190679 
899	 0,511619448941227 
900	 0,512119330302972 
901	 0,51235954667877 
902	 0,512075656627527 
903	 0,511566693762401 
904	 0,511001610431073 
905	 0,510613166398393 
906	 0,511201795373739 
907	 0,511788227224227 
908	 0,510893194742899 
909	 0,511197519678108 
910	 0,51248887557955 
911	 0,511936415303258 
912	 0,511428831503358 
913	 0,511707638470707 
914	 0,51158647304536 
915	 0,511196252642547 
916	 0,510807009665043 
917	 0,510631853639062 
918	 0,510747915411686 
919	 0,511365835733375 
920	 0,510876230786324 
921	 0,509329217964061 
922	 0,509895326441256 
923	 0,510774295595651 
924	 0,510398243076719 
925	 0,509985910687058 
926	 0,509550366156007 
927	 0,50878174348234 
928	 0,50818410844391 
929	 0,50785902673944 
930	 0,507572043028734 
931	 0,507255571383083 
932	 0,50696976225808 
933	 0,507564606300787 
934	 0,507839888737637 
935	 0,506256356049956 
936	 0,505542068992616 
937	 0,505861198388426 
938	 0,505856770840708 
939	 0,50575969433313 
940	 0,505506763573878 
941	 0,504532632278409 
942	 0,504068489042144 
943	 0,504938742185624 
944	 0,503556589297066 
945	 0,501272724845657 
946	 0,501664883162841 
947	 0,50199597465497 
948	 0,501501075136435 
949	 0,500442609746569 
950	 0,499136339850824 
951	 0,497876491346715 
952	 0,496981683832387 
953	 0,496469530339013 
954	 0,496288039881801 
955	 0,496424569581099 
956	 0,49604414897094 
957	 0,49288215814914 
958	 0,491296461149448 
959	 0,492302888386181 
960	 0,492882150619845 
961	 0,492395427003273 
962	 0,490832041882704 
963	 0,491960155066957 
964	 0,493670021613863 
965	 0,492026688698948 
966	 0,49055992559324 
967	 0,490166083564379 
968	 0,490890669401713 
969	 0,490714654496549 
970	 0,488975658106452 
971	 0,487263100031308 
972	 0,48693336484577 
973	 0,488845734621539 
974	 0,489942779888611 
975	 0,489954790967986 
976	 0,489495015336775 
977	 0,488419853791951 
978	 0,487523347597879 
979	 0,489386717463354 
980	 0,490961498780885 
981	 0,490773606220371 
982	 0,49025551276868 
983	 0,489880356396493 
984	 0,489872184054141 
985	 0,487753318778706 
986	 0,485788095652901 
987	 0,4891467178399 
988	 0,491237430299996 
989	 0,490688026016277 
990	 0,490144796168192 
991	 0,489876290299088 
992	 0,490031814999552 
993	 0,490083470248898 
994	 0,490007300633549 
995	 0,489862813517852 
996	 0,489881718121323 
997	 0,490754111508632 
998	 0,493816234943283 
999	 0,493980885639669 
1000	 0,49121922552217 
1001	 0,490867210616808 
1002	 0,492338205255084 
1003	 0,494906264661471 
1004	 0,496134539132954 
1005	 0,495808967446651 
1006	 0,494181614008181 
1007	 0,493438541015205 
1008	 0,494004237016788 
1009	 0,495803610608328 
1010	 0,495932927715067 
1011	 0,494233268903483 
1012	 0,492843378867565 
1013	 0,493268387500837 
1014	 0,495844533644663 
1015	 0,498507476935704 
1016	 0,49888491835149 
1017	 0,49571634371534 
1018	 0,49513089041735 
1019	 0,496350536813014 
1020	 0,496727832526626 
1021	 0,495154831074229 
1022	 0,492446410887018 
1023	 0,491389354012698 
1024	 0,493952527700504 
1025	 0,498807145386078 
1026	 0,496215705995613 
1027	 0,494798360110155 
1028	 0,499584293105159 
1029	 0,503816101869349 
1030	 0,502991942798556 
1031	 0,493979788427481 
1032	 0,493260072587787 
1033	 0,499315346551362 
1034	 0,502060408320233 
1035	 0,502964371529595 
1036	 0,502341067378901 
1037	 0,501212090870891 
1038	 0,498294556199385 
1039	 0,494538865055264 
1040	 0,496884626849732 
1041	 0,498854144945337 
1042	 0,496109472842642 
1043	 0,501765220554852 
1044	 0,508800171565169 
1045	 0,505796715483712 
1046	 0,502325709583561 
1047	 0,501568178511848 
1048	 0,506093868655975 
1049	 0,506264164736733 
1050	 0,502002799788097 
1051	 0,505535428133491 
1052	 0,509111118090617 
1053	 0,508080811105908 
1054	 0,499915398952509 
1055	 0,494902046752809 
1056	 0,501167125853753 
1057	 0,504800617428195 
1058	 0,505073949998069 
1059	 0,504049529975169 
1060	 0,502040367723025 
1061	 0,501449503350686 
1062	 0,507116669238629 
1063	 0,511468510913126 
1064	 0,511121031760894 
1065	 0,502293240043824 
1066	 0,499311636888119 
1067	 0,506217466642796 
1068	 0,505518507461985 
1069	 0,50399265823074 
1070	 0,506024040138973 
1071	 0,501130959591245 
1072	 0,493030154212485 
1073	 0,489477514950871 
1074	 0,50495993429126 
1075	 0,521771349842993 
