Wavelength	PENFOUL00611.asd
325	 7,25301743406348E-02 
326	 1,71438787942999E-02 
327	 6,24003935402789E-03 
328	 5,17370289843738E-02 
329	 0,130158126707562 
330	 0,225575961668982 
331	 0,262588001697212 
332	 0,183005931412873 
333	 0,037040805022574 
334	 8,65832142046869E-02 
335	 0,136446464978831 
336	 0,116199630845938 
337	 1,00830569096599E-02 
338	-6,95931684089076E-02 
339	-1,55221327831245E-02 
340	 4,22276980183524E-02 
341	 0,083735164732567 
342	 0,122708009736261 
343	 0,106013424857724 
344	 2,77064978664451E-02 
345	-7,8890775907032E-03 
346	-1,02454014756712E-02 
347	-3,42757041398888E-03 
348	 2,42787050177171E-02 
349	 6,11585288419581E-02 
350	 8,05537800777508E-02 
351	 5,33449388496726E-02 
352	-1,64648147999059E-02 
353	-3,47291079998414E-03 
354	 3,45766332315092E-02 
355	 3,12777202575007E-02 
356	 3,41951013229677E-02 
357	 0,046984251273794 
358	 5,22042074918371E-02 
359	 5,83086507462723E-02 
360	 6,74160596340399E-02 
361	 6,04308653938111E-02 
362	 4,92682688887276E-02 
363	 5,49042305241251E-02 
364	 5,67820530422026E-02 
365	 5,02432857437768E-02 
366	 3,19676533508921E-02 
367	 3,47553399877096E-02 
368	 6,77703639241851E-02 
369	 3,99471082550667E-02 
370	-7,22425948014696E-03 
371	 2,22054661395922E-02 
372	 3,05034646508698E-02 
373	 7,77978900855576E-03 
374	 4,16999240488849E-02 
375	 5,96357282335462E-02 
376	 1,76518168833676E-02 
377	 1,76588721811793E-02 
378	 4,41349487660305E-02 
379	 0,02755116119998 
380	 2,19227951469511E-02 
381	 3,83690221734244E-02 
382	 3,95463701482994E-02 
383	 3,57047397094067E-02 
384	 3,74130224857579E-02 
385	 0,03471761444978 
386	 3,06148143564092E-02 
387	 3,71565966964972E-02 
388	 4,32044893630998E-02 
389	 4,28603994340427E-02 
390	 2,90376103597901E-02 
391	 2,11607671422561E-02 
392	 4,21055030017234E-02 
393	 4,40248284090208E-02 
394	 2,82971095333983E-02 
395	 3,10705220132677E-02 
396	 0,03308515726607 
397	 2,57668440605467E-02 
398	 0,022256847084113 
399	 2,37082018293556E-02 
400	 3,00328121289747E-02 
401	 2,63024397149733E-02 
402	 0,016304954475405 
403	 3,02709652786219E-02 
404	 4,18869339316631E-02 
405	 0,035349181611186 
406	 3,23705606583889E-02 
407	 3,29268132727182E-02 
408	 3,03661602815704E-02 
409	 3,03957659572021E-02 
410	 3,30147531170613E-02 
411	 3,11706603978876E-02 
412	 2,88094164685738E-02 
413	 2,97878858016047E-02 
414	 3,05382355733254E-02 
415	 2,97290627995994E-02 
416	 2,48591717201583E-02 
417	 2,37661824366414E-02 
418	 2,89582163938997E-02 
419	 3,58736286392685E-02 
420	 3,82655847607582E-02 
421	 2,93512573952112E-02 
422	 2,64233750064573E-02 
423	 3,01851557904369E-02 
424	 0,027712073369952 
425	 2,47885092030151E-02 
426	 2,47907794637735E-02 
427	 2,56559479453417E-02 
428	 2,64980954674453E-02 
429	 2,64049997498929E-02 
430	 2,49071725004953E-02 
431	 2,24966404322454E-02 
432	 2,14167348622343E-02 
433	 2,23720702420986E-02 
434	 0,025576675012149 
435	 2,61565658250225E-02 
436	 2,54146113042036E-02 
437	 2,96407838784184E-02 
438	 3,16018307468036E-02 
439	 2,90610944337136E-02 
440	 2,72599093144104E-02 
441	 0,026853117671653 
442	 2,80238714663835E-02 
443	 2,68195014830548E-02 
444	 2,41113771999601E-02 
445	 2,62108617093188E-02 
446	 2,89166264465721E-02 
447	 2,94247882253608E-02 
448	 2,76034646967715E-02 
449	 2,56272289494787E-02 
450	 2,76774753479764E-02 
451	 2,88186517825477E-02 
452	 2,82066272933837E-02 
453	 2,92617189629373E-02 
454	 3,13670803052479E-02 
455	 0,033544734724583 
456	 0,031777308414385 
457	 2,72400432346372E-02 
458	 2,44118802577212E-02 
459	 2,53111481456252E-02 
460	 2,97508794659304E-02 
461	 2,98234809023247E-02 
462	 2,84130867100978E-02 
463	 3,03758744703856E-02 
464	 0,030716297892498 
465	 0,029132353857154 
466	 2,88642683438746E-02 
467	 2,89927378180317E-02 
468	 2,89629677180038E-02 
469	 2,95669127794998E-02 
470	 3,02270149295446E-02 
471	 2,94416438101087E-02 
472	 3,03540150301393E-02 
473	 0,032943246329861 
474	 3,25941728403005E-02 
475	 2,96826376108831E-02 
476	 2,51572746227017E-02 
477	 2,55385453324844E-02 
478	 0,029731658460983 
479	 3,11210462335194E-02 
480	 3,05966924822122E-02 
481	 2,89647451326413E-02 
482	 2,96691251896448E-02 
483	 0,031511048174987 
484	 3,22268928204241E-02 
485	 3,16152559675072E-02 
486	 3,06084215504147E-02 
487	 3,31445189469476E-02 
488	 3,53073042841455E-02 
489	 3,42100820970097E-02 
490	 3,28616002289026E-02 
491	 3,19887940226287E-02 
492	 3,19851380543161E-02 
493	 0,032025016792733 
494	 3,18978113604213E-02 
495	 3,23915038948665E-02 
496	 3,25228691915195E-02 
497	 3,11805647276758E-02 
498	 3,05951573790282E-02 
499	 3,09877219547392E-02 
500	 3,11458925811072E-02 
501	 3,20600820672389E-02 
502	 3,40046368810095E-02 
503	 3,50396893218509E-02 
504	 3,45142965778295E-02 
505	 3,15882933702327E-02 
506	 3,02276739385812E-02 
507	 3,14030385077926E-02 
508	 0,03336706540732 
509	 3,43282658700411E-02 
510	 3,30049526819776E-02 
511	 3,38143647771372E-02 
512	 3,59086523011927E-02 
513	 3,48555305970701E-02 
514	 3,36278767318976E-02 
515	 0,033482520275431 
516	 3,35592323082587E-02 
517	 3,38952794998305E-02 
518	 3,46250503571206E-02 
519	 3,57857458822505E-02 
520	 3,70333642102812E-02 
521	 3,74096781216204E-02 
522	 3,69815818774235E-02 
523	 3,59398891392496E-02 
524	 3,53975535302253E-02 
525	 0,03554984530204 
526	 3,64719689408385E-02 
527	 3,68656834664968E-02 
528	 3,65173268711183E-02 
529	 3,72985497599742E-02 
530	 3,79227111469306E-02 
531	 3,68198056810391E-02 
532	 3,64348069184262E-02 
533	 3,69566111745076E-02 
534	 3,70885972739596E-02 
535	 3,72021195034404E-02 
536	 3,74661607296181E-02 
537	 3,74401299580834E-02 
538	 3,74935070334715E-02 
539	 0,038476749328261 
540	 3,89086887284522E-02 
541	 3,83886202913805E-02 
542	 3,73710611838829E-02 
543	 3,67555024206804E-02 
544	 3,73413962954832E-02 
545	 0,038135853321048 
546	 3,86336609004564E-02 
547	 3,81003344228796E-02 
548	 3,75294678344492E-02 
549	 3,75382891746989E-02 
550	 3,85667249499422E-02 
551	 3,97891246674674E-02 
552	 3,99411317462303E-02 
553	 3,91640187891503E-02 
554	 3,79648139930335E-02 
555	 3,80139794905314E-02 
556	 0,038838933855183 
557	 3,99106494227066E-02 
558	 4,02790578153647E-02 
559	 4,00523580350926E-02 
560	 4,00104360983282E-02 
561	 3,99738831067983E-02 
562	 3,99298528017825E-02 
563	 4,01102593223547E-02 
564	 4,00092043860861E-02 
565	 3,89442621100679E-02 
566	 3,86518388405573E-02 
567	 3,93113484258019E-02 
568	 3,97950214332703E-02 
569	 4,03180192539072E-02 
570	 4,09481904721598E-02 
571	 4,08530326410297E-02 
572	 4,05865981581297E-02 
573	 4,17385792614655E-02 
574	 4,20273256770312E-02 
575	 4,11511123798313E-02 
576	 4,20815209032284E-02 
577	 4,33790530056809E-02 
578	 4,32413044395815E-02 
579	 4,38147363997839E-02 
580	 4,50220228247548E-02 
581	 4,51736949531659E-02 
582	 4,48517218133813E-02 
583	 0,044506970960743 
584	 4,49388788643436E-02 
585	 4,56722894360617E-02 
586	 4,56554535141007E-02 
587	 4,58673134219415E-02 
588	 4,64918196726357E-02 
589	 4,70323642630447E-02 
590	 4,73832478731716E-02 
591	 4,74452288886143E-02 
592	 4,67901831537824E-02 
593	 4,59683524428087E-02 
594	 4,66286725844575E-02 
595	 4,74270287189921E-02 
596	 4,77475853913091E-02 
597	 4,80879590212795E-02 
598	 4,82406118370312E-02 
599	 4,78255663836904E-02 
600	 4,77254636964368E-02 
601	 4,79417239286183E-02 
602	 4,73808277541334E-02 
603	 0,046882689030891 
604	 4,70643756848893E-02 
605	 4,68164247353652E-02 
606	 4,63481656128994E-02 
607	 4,67142794085863E-02 
608	 4,66105081523445E-02 
609	 0,045899187298275 
610	 4,68913940361916E-02 
611	 0,04792225154111 
612	 4,67569675093563E-02 
613	 4,55006762710955E-02 
614	 4,48707065775458E-02 
615	 4,52256008592538E-02 
616	 4,61727610780217E-02 
617	 4,72762156165899E-02 
618	 4,73994365821433E-02 
619	 0,046853826401964 
620	 4,65934071041506E-02 
621	 4,63787010449308E-02 
622	 4,61696776666358E-02 
623	 4,59246375141779E-02 
624	 4,57153631507299E-02 
625	 4,56357183051687E-02 
626	 0,046213650533227 
627	 4,70407415784511E-02 
628	 4,66131105446159E-02 
629	 4,62391756221942E-02 
630	 4,66091134420725E-02 
631	 4,74042407283478E-02 
632	 0,048248011939817 
633	 4,86460903050568E-02 
634	 4,84959818393873E-02 
635	 4,80095403686995E-02 
636	 4,80627362045626E-02 
637	 4,86664771511373E-02 
638	 4,97203441689658E-02 
639	 5,01322926002528E-02 
640	 5,00715441891746E-02 
641	 5,05785167659388E-02 
642	 5,08548868716384E-02 
643	 5,07233386095378E-02 
644	 5,10752649860988E-02 
645	 5,15464016013263E-02 
646	 5,15683757251963E-02 
647	 5,12808063813261E-02 
648	 5,08887550404225E-02 
649	 0,05091900440498 
650	 5,11558939211117E-02 
651	 5,14087261529499E-02 
652	 5,14305870435056E-02 
653	 5,11605919494009E-02 
654	 5,05293705072496E-02 
655	 5,01640159250531E-02 
656	 5,01416443490494E-02 
657	 4,95170800446159E-02 
658	 4,91512567479808E-02 
659	 4,99098397835565E-02 
660	 4,96622611307248E-02 
661	 0,048445356447025 
662	 4,76944158384279E-02 
663	 4,72734644341756E-02 
664	 4,70901610722403E-02 
665	 4,67498069188175E-02 
666	 0,046180545491022 
667	 4,53321789917553E-02 
668	 4,49230315761205E-02 
669	 4,51030306451867E-02 
670	 4,55813859890698E-02 
671	 4,57721431142457E-02 
672	 4,52636036209515E-02 
673	 4,49551022442005E-02 
674	 4,49041988286371E-02 
675	 0,044800378824771 
676	 4,48754070700098E-02 
677	 4,51543445205949E-02 
678	 4,53404341736335E-02 
679	 0,045441729806639 
680	 0,045502623707679 
681	 4,57427905807743E-02 
682	 4,61548328510294E-02 
683	 4,65256075533072E-02 
684	 4,69158682785944E-02 
685	 4,73406231328992E-02 
686	 4,76037361390698E-02 
687	 4,79361849075208E-02 
688	 0,048763812105036 
689	 4,98313284590109E-02 
690	 5,10749479374207E-02 
691	 0,052564223472594 
692	 5,41796309638202E-02 
693	 5,58266053514204E-02 
694	 5,76756096224933E-02 
695	 5,98708429558204E-02 
696	 6,27468290987388E-02 
697	 6,55436431127795E-02 
698	 6,80842882374303E-02 
699	 7,14995501952225E-02 
700	 0,075206222273127 
701	 7,83317584237867E-02 
702	 8,20041753071463E-02 
703	 8,61485460063078E-02 
704	 8,96560230679165E-02 
705	 9,29163753370754E-02 
706	 9,61989516845055E-02 
707	 9,95812924204948E-02 
708	 0,102921925879034 
709	 0,10592449826575 
710	 0,108913032926392 
711	 0,111856893538411 
712	 0,114188776467683 
713	 0,116332791495038 
714	 0,118677604165389 
715	 0,120792573821585 
716	 0,122633718068254 
717	 0,124278614865713 
718	 0,125894056218816 
719	 0,127548041902189 
720	 0,129174866366137 
721	 0,130535611813259 
722	 0,13134701620539 
723	 0,132607172510369 
724	 0,134277835822191 
725	 0,135394307546386 
726	 0,136152796257583 
727	 0,136716952255941 
728	 0,13743306395982 
729	 0,138114585479171 
730	 0,138293470733677 
731	 0,138812395725671 
732	 0,139733670012361 
733	 0,140147518863112 
734	 0,140371979423335 
735	 0,140713637515837 
736	 0,141041240079812 
737	 0,141426816562786 
738	 0,142118821887156 
739	 0,142654352515288 
740	 0,142916754101235 
741	 0,143439216800045 
742	 0,14380567916602 
743	 0,14351362432885 
744	 0,143738116739437 
745	 0,144476105577805 
746	 0,144908953406521 
747	 0,144921170950459 
748	 0,144580411632139 
749	 0,144997998818818 
750	 0,14563746559558 
751	 0,145471524879573 
752	 0,145307534565086 
753	 0,14530391014253 
754	 0,145114065842888 
755	 0,145213456627124 
756	 0,145863539599869 
757	 0,146071191758446 
758	 0,145948860177012 
759	 0,146035787794938 
760	 0,146317334496046 
761	 0,146716512881851 
762	 0,146870027614329 
763	 0,146746691409451 
764	 0,146382737973427 
765	 0,146442800740731 
766	 0,146883504136016 
767	 0,147236358392306 
768	 0,147560185234698 
769	 0,147820431327599 
770	 0,147850047265991 
771	 0,147843664498368 
772	 0,148034670593385 
773	 0,147867144719883 
774	 0,147514631124735 
775	 0,147866420498159 
776	 0,148320695909559 
777	 0,14854309913645 
778	 0,148573854562716 
779	 0,148543162901796 
780	 0,148634236630216 
781	 0,148898867566285 
782	 0,149226653766866 
783	 0,149169068297459 
784	 0,149090816658889 
785	 0,149250126603285 
786	 0,149623854573542 
787	 0,150047653539494 
788	 0,150267258949274 
789	 0,150138973326283 
790	 0,149727562259922 
791	 0,149434506523356 
792	 0,149465530707991 
793	 0,149928074871231 
794	 0,150286579201486 
795	 0,150389768466914 
796	 0,1500948580561 
797	 0,150160841370335 
798	 0,150727221029939 
799	 0,151067146884019 
800	 0,151177369368816 
801	 0,151119482359211 
802	 0,151352394582667 
803	 0,151704841865304 
804	 0,151467852124215 
805	 0,151386152669058 
806	 0,151641119054992 
807	 0,151626491094986 
808	 0,151465342106354 
809	 0,151345916104559 
810	 0,151477778582122 
811	 0,151781982975931 
812	 0,151916354123078 
813	 0,151984072902271 
814	 0,152027988683512 
815	 0,152076660829751 
816	 0,152165341039052 
817	 0,152325488539834 
818	 0,152407290604974 
819	 0,152409116705631 
820	 0,152352118716508 
821	 0,152775142576766 
822	 0,15369733650989 
823	 0,153495746081889 
824	 0,152873386424888 
825	 0,152939184365828 
826	 0,153485608358459 
827	 0,154158954958562 
828	 0,154010008580573 
829	 0,153659670106897 
830	 0,153436954751206 
831	 0,153110196466326 
832	 0,153080420342034 
833	 0,153889733277495 
834	 0,153863461614577 
835	 0,153115373057893 
836	 0,15349844799395 
837	 0,153905836389149 
838	 0,153820381060279 
839	 0,15402572318428 
840	 0,154478685884689 
841	 0,155002067641378 
842	 0,154909815983865 
843	 0,154385859862276 
844	 0,15472207316319 
845	 0,154760004501251 
846	 0,154068402410611 
847	 0,154381927739155 
848	 0,154974281089923 
849	 0,154571947029255 
850	 0,154416463938435 
851	 0,154655235381947 
852	 0,154788512490886 
853	 0,154521428408714 
854	 0,153880653567399 
855	 0,154240860305885 
856	 0,154991731927933 
857	 0,155094768485114 
858	 0,155158199639724 
859	 0,15518101299575 
860	 0,154652341319741 
861	 0,154475918350176 
862	 0,155042717838728 
863	 0,155529019202776 
864	 0,155749240543959 
865	 0,155600047143613 
866	 0,1555716480159 
867	 0,155788776202509 
868	 0,156263950053449 
869	 0,156513202577815 
870	 0,156226648666761 
871	 0,155076942477134 
872	 0,15427130834797 
873	 0,155212616490071 
874	 0,156074165188198 
875	 0,15642074069735 
876	 0,156300229070961 
877	 0,156235358332308 
878	 0,156419877628167 
879	 0,156480414240671 
880	 0,156262387100081 
881	 0,155678060736857 
882	 0,155536544572654 
883	 0,155850032698641 
884	 0,156198358814893 
885	 0,156437959467746 
886	 0,156546577273227 
887	 0,156927496824511 
888	 0,157083083592436 
889	 0,156609982207699 
890	 0,156708453049264 
891	 0,157120004200694 
892	 0,15677042701484 
893	 0,156577879990554 
894	 0,15669770296484 
895	 0,156378910445812 
896	 0,156354787541469 
897	 0,157092237718903 
898	 0,157204211347947 
899	 0,156852052058539 
900	 0,156703762645174 
901	 0,156777383933776 
902	 0,157152451903441 
903	 0,15813024478557 
904	 0,158384439209759 
905	 0,157339693368139 
906	 0,157325207638988 
907	 0,157906413401128 
908	 0,158043602925825 
909	 0,158274206480418 
910	 0,15856325867649 
911	 0,158460809633502 
912	 0,158386365174685 
913	 0,158524021502753 
914	 0,158652238410473 
915	 0,158820126738477 
916	 0,159051672078154 
917	 0,158266321733831 
918	 0,157133712049862 
919	 0,157912786143501 
920	 0,158409655202896 
921	 0,158080050737654 
922	 0,158328912682702 
923	 0,158296012302937 
924	 0,157426181164024 
925	 0,158075440212866 
926	 0,159227453818484 
927	 0,15837885287572 
928	 0,158255229991683 
929	 0,158994417640481 
930	 0,158106412175947 
931	 0,157381223074166 
932	 0,15781388633203 
933	 0,158470240640971 
934	 0,158733062735728 
935	 0,158003886161357 
936	 0,157603354409763 
937	 0,157681429069698 
938	 0,157658149318508 
939	 0,15816343667973 
940	 0,158945720679031 
941	 0,15762810028956 
942	 0,156150012291878 
943	 0,156323949908104 
944	 0,1570647021936 
945	 0,157721472227028 
946	 0,157434871208068 
947	 0,15739308905049 
948	 0,157642156251718 
949	 0,156987861830841 
950	 0,156478482147803 
951	 0,156651042121562 
952	 0,156821274371984 
953	 0,156534505769687 
954	 0,155408098391865 
955	 0,154979583562027 
956	 0,155243088267 
957	 0,155330372784156 
958	 0,15484204556674 
959	 0,154126887225685 
960	 0,15571250562712 
961	 0,156609493979341 
962	 0,154953901597364 
963	 0,155826467507189 
964	 0,157627211560942 
965	 0,156910904283217 
966	 0,15524333717942 
967	 0,153832955851527 
968	 0,155321515854839 
969	 0,15577436130605 
970	 0,154056239440308 
971	 0,154033184804425 
972	 0,154517839428969 
973	 0,154319855794998 
974	 0,155212219129747 
975	 0,156177127944137 
976	 0,154946254595795 
977	 0,154779491259373 
978	 0,156063233023201 
979	 0,156720852384301 
980	 0,157749646502216 
981	 0,159224913345612 
982	 0,159017003842298 
983	 0,157998145441591 
984	 0,157290605048339 
985	 0,157408333931613 
986	 0,157337044559778 
987	 0,154749465829011 
988	 0,155156218369256 
989	 0,158435167786463 
990	 0,158105608858858 
991	 0,157474855480311 
992	 0,158148209759948 
993	 0,158987393124563 
994	 0,158581309179605 
995	 0,156003107700358 
996	 0,157217041855119 
997	 0,160602500469615 
998	 0,160942948594289 
999	 0,160591197309048 
1000	 0,160380669950896 
1001	 0,160915914968776 
1002	 0,162144238042626 
1003	 0,16383998840693 
1004	 0,165356583158188 
1005	 0,164979648982201 
1006	 0,161542219045418 
1007	 0,159874675853327 
1008	 0,159662879886277 
1009	 0,15863306425563 
1010	 0,158966054271113 
1011	 0,160463502159372 
1012	 0,160464119114766 
1013	 0,161948847881424 
1014	 0,165424129317716 
1015	 0,167142798461589 
1016	 0,165781502508124 
1017	 0,161324789697548 
1018	 0,162186569253193 
1019	 0,164738236139311 
1020	 0,161829384168911 
1021	 0,159774065096082 
1022	 0,15974025276336 
1023	 0,160641538435814 
1024	 0,161489801223116 
1025	 0,162190839337451 
1026	 0,164417474019177 
1027	 0,166133893454297 
1028	 0,166316054443785 
1029	 0,167801422063473 
1030	 0,168930306543295 
1031	 0,167458488375815 
1032	 0,162972245036546 
1033	 0,160558210344923 
1034	 0,170265578315769 
1035	 0,177668751014667 
1036	 0,17721378005754 
1037	 0,164059583802369 
1038	 0,15835558163022 
1039	 0,167241001900017 
1040	 0,173390258623015 
1041	 0,174423864399323 
1042	 0,17009446502213 
1043	 0,169805738545309 
1044	 0,173347252461473 
1045	 0,177975482443327 
1046	 0,172436253299053 
1047	 0,162701035889724 
1048	 0,170126635975695 
1049	 0,167588829514017 
1050	 0,155099321019775 
1051	 0,166351073400804 
1052	 0,175660147412332 
1053	 0,172339671956883 
1054	 0,175323143462552 
1055	 0,178715794355094 
1056	 0,176304034851301 
1057	 0,168568829251492 
1058	 0,163245013776629 
1059	 0,169541873595838 
1060	 0,172695447234193 
1061	 0,17343743855001 
1062	 0,18175661977627 
1063	 0,1806360331865 
1064	 0,170712957769206 
1065	 0,173256396463995 
1066	 0,177236196091419 
1067	 0,177944819561582 
1068	 0,179931033347985 
1069	 0,175597946741709 
1070	 0,161675585892389 
1071	 0,156873546758717 
1072	 0,160122191137359 
1073	 0,16582285334344 
1074	 0,16424088641612 
1075	 0,162348744990803 
