Wavelength	PENFOUL00112.asd
325	 0,035094661044594 
326	-4,36212057000583E-02 
327	 3,87778687502738E-02 
328	 0,236254712111495 
329	 4,54372648074643E-02 
330	-0,086501832506852 
331	 0,138308390078723 
332	 0,121375521015779 
333	-3,68350730122557E-02 
334	 3,90183946377792E-02 
335	 6,00002915567255E-02 
336	-2,06850125048941E-02 
337	-1,83727715525591E-04 
338	 0,067382085209667 
339	 0,10605546430656 
340	 9,47653090796608E-02 
341	 0,073112261990411 
342	 0,129473550966374 
343	 0,116681813062916 
344	 1,27392572772644E-02 
345	 3,33445526696454E-02 
346	 7,12010753801991E-02 
347	 1,49175293633457E-02 
348	 3,31475575251004E-02 
349	 9,21970646732442E-02 
350	 4,69664679137462E-02 
351	 7,89570619507893E-03 
352	 1,00599428034196E-02 
353	-4,87595684765795E-03 
354	-7,75854986518885E-03 
355	 3,11999965773058E-02 
356	 3,96407207429231E-02 
357	 0,020761877715773 
358	 3,79349551280166E-02 
359	 3,45517990271027E-02 
360	-6,31485390246368E-03 
361	-2,42565535941238E-02 
362	-1,40576128945524E-02 
363	 1,83818122668711E-02 
364	 0,029876642772127 
365	 1,91997742805055E-02 
366	 1,44305828284049E-02 
367	 2,33898203894838E-02 
368	 4,49618091291202E-02 
369	 3,21759762728621E-02 
370	 8,77227989115574E-03 
371	 2,83934939077981E-02 
372	 3,52086059020206E-02 
373	 2,31086334054274E-02 
374	 3,96386568160372E-02 
375	 4,87448615854348E-02 
376	 2,86766856849873E-02 
377	 3,50456901416883E-02 
378	 4,70153130077599E-02 
379	-1,63432339137411E-03 
380	-2,37874502716722E-02 
381	 5,71105357873742E-03 
382	 3,90403577014044E-02 
383	 0,057691441373801 
384	 4,92239556584204E-02 
385	 2,13040320908653E-02 
386	-6,73050043426025E-03 
387	 3,94593157376997E-03 
388	 2,54410201343002E-02 
389	 4,25811399493998E-02 
390	 4,71969153251238E-02 
391	 3,93502129671998E-02 
392	 2,06211649906255E-02 
393	 1,11485567615874E-02 
394	 1,31863593591277E-02 
395	 1,93159535808296E-02 
396	 2,29886233613991E-02 
397	 1,97625026121564E-02 
398	 5,68332820241497E-03 
399	-3,91004246592373E-03 
400	 1,32179452123794E-02 
401	 2,43547662617079E-02 
402	 2,32253956473701E-02 
403	 1,95085944772458E-02 
404	 1,83750702611897E-02 
405	 2,20950951683345E-02 
406	 2,04651255715602E-02 
407	 1,57522369970855E-02 
408	 0,015805449604264 
409	 1,50493413697006E-02 
410	 1,31033375186148E-02 
411	 1,53770516902444E-02 
412	 1,84397114675264E-02 
413	 1,88681977903484E-02 
414	 1,84645418111177E-02 
415	 1,75236189003998E-02 
416	 1,53507429292183E-02 
417	 0,015764763780937 
418	 1,99810512258921E-02 
419	 2,65238061152929E-02 
420	 2,85648192168913E-02 
421	 1,82241179548071E-02 
422	 1,46071679756478E-02 
423	 1,94760283279465E-02 
424	 2,21290396008603E-02 
425	 2,27159522451551E-02 
426	 2,12466738268371E-02 
427	 1,71330710449837E-02 
428	 1,28375164276873E-02 
429	 1,26343993548067E-02 
430	 1,18510846169037E-02 
431	 1,01779727378665E-02 
432	 1,23266934913353E-02 
433	 1,61294573000035E-02 
434	 1,92104407462815E-02 
435	 1,52716500670205E-02 
436	 8,96054527106238E-03 
437	 1,52886160689375E-02 
438	 1,98694668692378E-02 
439	 1,76165911350523E-02 
440	 1,55649801284623E-02 
441	 1,46155418086182E-02 
442	 1,50967798449898E-02 
443	 1,49644247535945E-02 
444	 0,014378940066295 
445	 1,56602397630495E-02 
446	 1,75084271431269E-02 
447	 0,018830826721229 
448	 1,79855588869787E-02 
449	 0,016048841843264 
450	 1,53291821292283E-02 
451	 1,57574318437636E-02 
452	 1,71545218489084E-02 
453	 1,89738457036212E-02 
454	 1,88623204519688E-02 
455	 1,50486604103282E-02 
456	 1,35251151524684E-02 
457	 1,42552342108603E-02 
458	 1,36530382469386E-02 
459	 1,39382638052071E-02 
460	 1,55127937980509E-02 
461	 1,52049428696923E-02 
462	 1,46225464695229E-02 
463	 1,62683077721367E-02 
464	 1,68411686309207E-02 
465	 1,58763656922529E-02 
466	 1,47755938582052E-02 
467	 1,37834469913336E-02 
468	 1,32764370357717E-02 
469	 1,51168111897179E-02 
470	 1,74899422930992E-02 
471	 1,63448830709361E-02 
472	 1,55226237381925E-02 
473	 1,62138496899433E-02 
474	 1,81008196548261E-02 
475	 1,84706541639166E-02 
476	 1,49249167069834E-02 
477	 1,25219767480824E-02 
478	 1,24734265129771E-02 
479	 1,49947312603977E-02 
480	 1,71568390903584E-02 
481	 1,73955541553435E-02 
482	 1,63033488571016E-02 
483	 1,46319661526976E-02 
484	 1,32475815964149E-02 
485	 1,33316826306987E-02 
486	 1,46758383688101E-02 
487	 1,49141148806128E-02 
488	 1,59082814880094E-02 
489	 1,87188501341359E-02 
490	 1,87878300774622E-02 
491	 1,69737645294398E-02 
492	 0,017097211871948 
493	 1,58148556429551E-02 
494	 1,30193218013034E-02 
495	 1,40474565395264E-02 
496	 1,60254064206887E-02 
497	 0,015345642684176 
498	 1,50774881747856E-02 
499	 1,54882392904757E-02 
500	 1,51881700670877E-02 
501	 1,53445716627162E-02 
502	 1,64004847140222E-02 
503	 1,65038940034948E-02 
504	 1,57588914322852E-02 
505	 1,47394970608436E-02 
506	 1,38468518120562E-02 
507	 1,35172839331573E-02 
508	 1,47917439333232E-02 
509	 0,015892198987829 
510	 1,53319943347473E-02 
511	 1,58839327573429E-02 
512	 1,68972866260738E-02 
513	 1,50908540776412E-02 
514	 1,44084145270318E-02 
515	 1,60052424181091E-02 
516	 1,52007066182468E-02 
517	 1,40051649720585E-02 
518	 1,58352888559078E-02 
519	 1,70304367494155E-02 
520	 1,67167909069232E-02 
521	 0,015299249771394 
522	 1,43417041032635E-02 
523	 1,49506776932554E-02 
524	 1,61793991330517E-02 
525	 1,71995750112836E-02 
526	 1,65696879225482E-02 
527	 0,015856494884716 
528	 1,57841197403525E-02 
529	 1,70614790418433E-02 
530	 1,78411048622706E-02 
531	 1,60402627389071E-02 
532	 1,45321369423922E-02 
533	 0,014220502723651 
534	 1,56777346482051E-02 
535	 1,67987438265212E-02 
536	 1,63408593189402E-02 
537	 1,54134215194449E-02 
538	 1,48289902950468E-02 
539	 1,58497786921427E-02 
540	 1,61477156795573E-02 
541	 0,015230513271107 
542	 1,43780142344694E-02 
543	 0,014473855089561 
544	 1,61738163797534E-02 
545	 1,66386929623768E-02 
546	 1,59137214463637E-02 
547	 1,59168975837018E-02 
548	 1,58075154435304E-02 
549	 1,53905928989747E-02 
550	 1,60194351835617E-02 
551	 1,68798362987576E-02 
552	 1,65244496944865E-02 
553	 1,59017955828529E-02 
554	 1,54567747344922E-02 
555	 1,57226009216274E-02 
556	 1,63242846119768E-02 
557	 1,68761475924363E-02 
558	 1,68557936828526E-02 
559	 1,63627311465667E-02 
560	 1,58505867415429E-02 
561	 1,55947219599785E-02 
562	 1,56897827017997E-02 
563	 1,58093570572276E-02 
564	 1,55935525385306E-02 
565	 1,46239358233661E-02 
566	 1,41944754683025E-02 
567	 1,45832807342042E-02 
568	 1,55224493618539E-02 
569	 1,60324576125578E-02 
570	 1,54991374571205E-02 
571	 1,50145388262916E-02 
572	 1,51285277867439E-02 
573	 1,68195568946228E-02 
574	 1,71169375137195E-02 
575	 1,56033629985304E-02 
576	 1,63841444616372E-02 
577	 1,76437305867002E-02 
578	 1,70743525989904E-02 
579	 1,74288196597265E-02 
580	 1,85756620616286E-02 
581	 1,81847742195694E-02 
582	 1,74568844446941E-02 
583	 1,72035613596438E-02 
584	 1,81226954321345E-02 
585	 1,91917306693533E-02 
586	 1,84164534249106E-02 
587	 0,018279723034244 
588	 1,91443392156238E-02 
589	 0,018929310684107 
590	 1,88579508364581E-02 
591	 2,00310781449364E-02 
592	 1,99865573996557E-02 
593	 1,89767658389129E-02 
594	 1,90448312231869E-02 
595	 0,019079062002765 
596	 1,87334646225264E-02 
597	 1,91360678447273E-02 
598	 1,96883432050955E-02 
599	 1,93386306722691E-02 
600	 1,90463867902681E-02 
601	 1,90517677684675E-02 
602	 1,91896533202834E-02 
603	 1,93044632435419E-02 
604	 1,92358819208231E-02 
605	 0,018518628898709 
606	 1,77591143167417E-02 
607	 1,87656455637375E-02 
608	 1,88901832733693E-02 
609	 1,76197383604767E-02 
610	 1,84093585808196E-02 
611	 1,94391041072312E-02 
612	 1,81587067245448E-02 
613	 1,73386933932417E-02 
614	 1,72998223918984E-02 
615	 1,65796463272479E-02 
616	 1,64137100387036E-02 
617	 0,017445430929137 
618	 1,80203036226343E-02 
619	 1,80564446249075E-02 
620	 1,79567208245317E-02 
621	 1,73967877610838E-02 
622	 1,65624793161475E-02 
623	 0,01669370809798 
624	 1,69410042748193E-02 
625	 1,64034708665362E-02 
626	 1,65947573669473E-02 
627	 1,73523093347928E-02 
628	 1,72560813697027E-02 
629	 1,71880847624469E-02 
630	 1,75603834149844E-02 
631	 1,79555069165092E-02 
632	 1,82147393686781E-02 
633	 0,018172474863902 
634	 1,80443088023454E-02 
635	 1,79273554240496E-02 
636	 1,77693447957038E-02 
637	 1,81187047293646E-02 
638	 0,019320443975288 
639	 0,019635197016773 
640	 1,92325720624557E-02 
641	 1,93357232120984E-02 
642	 1,98419856097037E-02 
643	 2,05449932242819E-02 
644	 2,02422082992888E-02 
645	 1,96632297644506E-02 
646	 1,98899710143078E-02 
647	 2,02682236080044E-02 
648	 2,04352326357308E-02 
649	 1,96262545517892E-02 
650	 1,92826163929789E-02 
651	 2,02020940883342E-02 
652	 0,020200849077791 
653	 1,94811330795834E-02 
654	 1,90972922564627E-02 
655	 1,90328181224742E-02 
656	 1,91597720559723E-02 
657	 1,86238047800284E-02 
658	 1,81545510655246E-02 
659	 1,85096131552345E-02 
660	 0,018226021579026 
661	 1,73828940684904E-02 
662	 1,70818093159677E-02 
663	 1,71317958683722E-02 
664	 1,73381482663128E-02 
665	 1,69696246239729E-02 
666	 1,62483434908677E-02 
667	 1,56370719142304E-02 
668	 1,53848497670134E-02 
669	 1,55700572962451E-02 
670	 1,61910044737341E-02 
671	 1,63993664953746E-02 
672	 1,56047723936832E-02 
673	 1,52477011046288E-02 
674	 1,52856664613739E-02 
675	 1,48527141865577E-02 
676	 1,50465881130429E-02 
677	 0,015938697387896 
678	 1,55743266665468E-02 
679	 1,49546914720553E-02 
680	 1,54357836743728E-02 
681	 1,58862527043761E-02 
682	 1,61299814989385E-02 
683	 0,016555808379529 
684	 1,66379637108544E-02 
685	 1,61870503597122E-02 
686	 0,016266110474647 
687	 1,68416871135661E-02 
688	 1,76201098966584E-02 
689	 1,80276293811042E-02 
690	 1,80791090716316E-02 
691	 1,87175584459759E-02 
692	 1,97186020515244E-02 
693	 2,08480528469499E-02 
694	 2,21693043726466E-02 
695	 2,38008682709412E-02 
696	 2,59807753898684E-02 
697	 0,02867342019172 
698	 3,17877936468203E-02 
699	 3,48700172338381E-02 
700	 3,82738100649515E-02 
701	 4,24993662754003E-02 
702	 4,69613907895302E-02 
703	 5,15746241254216E-02 
704	 5,66889292183306E-02 
705	 6,17305718455004E-02 
706	 6,64170329716429E-02 
707	 7,16578151476734E-02 
708	 0,077283461556904 
709	 8,27721350770089E-02 
710	 8,80673339940845E-02 
711	 9,30933241018099E-02 
712	 9,77546640598732E-02 
713	 0,102486936351449 
714	 0,107621152275587 
715	 0,112154253837279 
716	 0,116062725897132 
717	 0,119778015870066 
718	 0,123575580992014 
719	 0,127527488961159 
720	 0,131242776808844 
721	 0,134462650817639 
722	 0,136935113779602 
723	 0,139366210927445 
724	 0,141975617775077 
725	 0,144895312529876 
726	 0,147136447984466 
727	 0,148265530784562 
728	 0,150166079451182 
729	 0,152337477699914 
730	 0,153408622157919 
731	 0,15437562063503 
732	 0,155542320713962 
733	 0,156834897955464 
734	 0,158110160275898 
735	 0,159223249183012 
736	 0,160011390057661 
737	 0,160630909882184 
738	 0,161542594827133 
739	 0,162415067677394 
740	 0,163115771779397 
741	 0,163682530434848 
742	 0,164045203875374 
743	 0,164136197253846 
744	 0,164576521106826 
745	 0,16534434139197 
746	 0,165925882826144 
747	 0,166301543492159 
748	 0,166486449328272 
749	 0,166817718847625 
750	 0,167088600564367 
751	 0,166891275092453 
752	 0,167297586282562 
753	 0,16822233582746 
754	 0,168176432722518 
755	 0,167963675361038 
756	 0,168177303897112 
757	 0,168394735281592 
758	 0,168685350500885 
759	 0,169381025906822 
760	 0,169456382035481 
761	 0,168900731489017 
762	 0,169408570069189 
763	 0,170000095318338 
764	 0,16973178407611 
765	 0,169854218946727 
766	 0,170276882765896 
767	 0,170090951718327 
768	 0,170199980214539 
769	 0,170761021530033 
770	 0,170487124791095 
771	 0,170119646876453 
772	 0,170628064536439 
773	 0,170783221154433 
774	 0,170521223377072 
775	 0,170468842100818 
776	 0,17075741546977 
777	 0,171353265880453 
778	 0,171413454801489 
779	 0,171245052117391 
780	 0,171443590521769 
781	 0,171600773038584 
782	 0,171600833120579 
783	 0,171385276061972 
784	 0,171279245033565 
785	 0,171466368965106 
786	 0,171512505134485 
787	 0,171491553024931 
788	 0,171659663367451 
789	 0,1716888447319 
790	 0,171537009893938 
791	 0,171473626481768 
792	 0,171381747642464 
793	 0,171189286322755 
794	 0,17118437633626 
795	 0,171353435734751 
796	 0,171585786640637 
797	 0,171681312319649 
798	 0,171579467809046 
799	 0,171418365732106 
800	 0,171276333850127 
801	 0,171227152765278 
802	 0,171350138535402 
803	 0,171522736228173 
804	 0,171366100245658 
805	 0,171386294865525 
806	 0,171763627262796 
807	 0,172373511927249 
808	 0,172849154713541 
809	 0,172829981312462 
810	 0,172775442616738 
811	 0,172729818991224 
812	 0,17248927291184 
813	 0,172346888499178 
814	 0,172436723871305 
815	 0,17270367510118 
816	 0,172948580948335 
817	 0,172948105716412 
818	 0,172783978200993 
819	 0,172659823895621 
820	 0,173149623842792 
821	 0,173400026553574 
822	 0,173116731420208 
823	 0,173302123020986 
824	 0,173633803196962 
825	 0,173580907632815 
826	 0,174022178191472 
827	 0,174740672601316 
828	 0,174359101496416 
829	 0,174197961100332 
830	 0,174753089957872 
831	 0,174365766549234 
832	 0,173769750256258 
833	 0,174181348197782 
834	 0,174095197718574 
835	 0,173570493964147 
836	 0,174061337287878 
837	 0,174508049696932 
838	 0,17438454973505 
839	 0,174313729324192 
840	 0,174453696565282 
841	 0,174921618673507 
842	 0,175072274414953 
843	 0,174874216363368 
844	 0,174826170220415 
845	 0,174794561798493 
846	 0,174781178057519 
847	 0,175301362061413 
848	 0,1757602995824 
849	 0,175274648499927 
850	 0,174978038673944 
851	 0,17501671020708 
852	 0,174873834332493 
853	 0,174568201090004 
854	 0,17416779086121 
855	 0,17403387942468 
856	 0,174225173031857 
857	 0,174746617890523 
858	 0,175201179172731 
859	 0,175386004700907 
860	 0,175097093688238 
861	 0,174644739718602 
862	 0,174340539325671 
863	 0,175006314921189 
864	 0,175527243671493 
865	 0,174406437757645 
866	 0,174304960152078 
867	 0,17525288613573 
868	 0,175354513755406 
869	 0,175224176515783 
870	 0,17509646190347 
871	 0,17468903099745 
872	 0,174416396669091 
873	 0,174767876333775 
874	 0,174983227144323 
875	 0,175049306916007 
876	 0,175431996764222 
877	 0,176007131374554 
878	 0,176546219521507 
879	 0,176152367776438 
880	 0,175517638937041 
881	 0,175473221384126 
882	 0,175896803787146 
883	 0,176527649294635 
884	 0,176756979117926 
885	 0,176876559535539 
886	 0,177007911882148 
887	 0,177299322727346 
888	 0,177446289311415 
889	 0,177203973341506 
890	 0,177303430445594 
891	 0,177538725551011 
892	 0,177111096942056 
893	 0,177117740742676 
894	 0,177699935542464 
895	 0,177784613747302 
896	 0,177824475170469 
897	 0,178163354103739 
898	 0,178383959062405 
899	 0,17826912993153 
900	 0,177526780268636 
901	 0,177312799942863 
902	 0,177773798609409 
903	 0,178119170148638 
904	 0,177934313129958 
905	 0,177155423704151 
906	 0,177463167269397 
907	 0,17786965184921 
908	 0,176713166364742 
909	 0,176615472811361 
910	 0,177688649196858 
911	 0,178272200805993 
912	 0,178209633092601 
913	 0,177574612713833 
914	 0,177509088936126 
915	 0,177883827041209 
916	 0,178383523877082 
917	 0,178273264484063 
918	 0,177724824751244 
919	 0,177641358747165 
920	 0,177216554263334 
921	 0,176477373172274 
922	 0,176903990088915 
923	 0,17702715320372 
924	 0,175774721709496 
925	 0,175691309321244 
926	 0,176261482681036 
927	 0,175841735578598 
928	 0,175131343171528 
929	 0,174450470331291 
930	 0,174250025829901 
931	 0,174192252330231 
932	 0,174098961794203 
933	 0,174350283224669 
934	 0,1743377878141 
935	 0,17329023285063 
936	 0,172067204646912 
937	 0,171225474433715 
938	 0,171782469616972 
939	 0,171899714336291 
940	 0,170849612355463 
941	 0,168923226898261 
942	 0,167860085893564 
943	 0,168924165022695 
944	 0,168828898145217 
945	 0,167516284116333 
946	 0,165936931066694 
947	 0,165081873089122 
948	 0,164891237604204 
949	 0,163720838189295 
950	 0,162896429486541 
951	 0,162812289072849 
952	 0,160733981786305 
953	 0,158420570993771 
954	 0,158236821853067 
955	 0,158167773498352 
956	 0,157458277290328 
957	 0,15526629388486 
958	 0,153284055920529 
959	 0,152579489583697 
960	 0,155061900927182 
961	 0,155819997295512 
962	 0,151821878965698 
963	 0,15104711589671 
964	 0,152393652294155 
965	 0,152424744983929 
966	 0,150882928871194 
967	 0,149011958329319 
968	 0,151244680236634 
969	 0,152637962591145 
970	 0,151290082498283 
971	 0,149477206151815 
972	 0,148369655638503 
973	 0,148854223589598 
974	 0,150094482604621 
975	 0,151125573267649 
976	 0,150602461769977 
977	 0,150152859871024 
978	 0,150231981558485 
979	 0,150624576583753 
980	 0,151234176157496 
981	 0,151862606483629 
982	 0,151958624963593 
983	 0,151629689056123 
984	 0,151003613829094 
985	 0,149371136678219 
986	 0,147749629898914 
987	 0,148154133949588 
988	 0,149924695237724 
989	 0,152189862089061 
990	 0,152897912013787 
991	 0,152828573141577 
992	 0,152475561805085 
993	 0,152006905031533 
994	 0,15216530387603 
995	 0,153538677268698 
996	 0,154116651197668 
997	 0,154398781767238 
998	 0,156213369233371 
999	 0,155777573642968 
1000	 0,153488472643792 
1001	 0,154631109094623 
1002	 0,156355015491511 
1003	 0,15748386537627 
1004	 0,160625259870608 
1005	 0,161178322274677 
1006	 0,155570423900173 
1007	 0,156470072081904 
1008	 0,160555197417112 
1009	 0,158027488532846 
1010	 0,157587691061461 
1011	 0,159958955311465 
1012	 0,159898470824916 
1013	 0,159267467758232 
1014	 0,159406846026663 
1015	 0,163517166433374 
1016	 0,164918525996855 
1017	 0,159226500529308 
1018	 0,160869715020544 
1019	 0,165491146698546 
1020	 0,163632243796182 
1021	 0,16173366643106 
1022	 0,161246165031 
1023	 0,162033749874596 
1024	 0,162146641642433 
1025	 0,16189149894447 
1026	 0,166299941652364 
1027	 0,168905647005949 
1028	 0,166323879123023 
1029	 0,166150576181184 
1030	 0,168044570597193 
1031	 0,170364378073615 
1032	 0,169885887594463 
1033	 0,168733511797026 
1034	 0,17252827848535 
1035	 0,175256210985915 
1036	 0,174998251192159 
1037	 0,170876115578148 
1038	 0,169477104747821 
1039	 0,172521643919553 
1040	 0,170843759343277 
1041	 0,169644064262292 
1042	 0,173382027701018 
1043	 0,179333780326104 
1044	 0,183724726645044 
1045	 0,18210471382275 
1046	 0,172778265554274 
1047	 0,163986278777925 
1048	 0,176255672133382 
1049	 0,179971005938488 
1050	 0,171394317115333 
1051	 0,173377781951357 
1052	 0,174638853093132 
1053	 0,170556318366288 
1054	 0,166865316433949 
1055	 0,169752408254463 
1056	 0,182388415800206 
1057	 0,186886125148082 
1058	 0,185717404369891 
1059	 0,185876714555989 
1060	 0,176693226139721 
1061	 0,164979943711563 
1062	 0,170938846812936 
1063	 0,176370971748419 
1064	 0,177306242540341 
1065	 0,180449490882238 
1066	 0,182798749138132 
1067	 0,181573818869912 
1068	 0,168901070228925 
1069	 0,16566628079221 
1070	 0,180915559748984 
1071	 0,161965243856491 
1072	 0,137476221145281 
1073	 0,149925575691562 
1074	 0,162730715305041 
1075	 0,16955499450999 
