Wavelength	PENFOUL00660.asd
325	 0,101559762713093 
326	 0,287830428563861 
327	 0,40053168369874 
328	 0,319807292236943 
329	 0,281702665085829 
330	 0,292008306209151 
331	 0,326964667498795 
332	 0,326170637341531 
333	 0,296057406013253 
334	 0,262670405360459 
335	 0,23461777954563 
336	 0,204105440627722 
337	 0,113278121823458 
338	 0,067461190280495 
339	 0,158148271321723 
340	 0,23393261767581 
341	 0,274873272079217 
342	 0,288191486836796 
343	 0,266205552747434 
344	 0,221879139499225 
345	 0,25459585980797 
346	 0,289533497878886 
347	 0,253776342588196 
348	 0,242630679856847 
349	 0,24992862674029 
350	 0,223818844529104 
351	 0,22435777103249 
352	 0,263090851678014 
353	 0,249125781673475 
354	 0,220851289481743 
355	 0,221383424462566 
356	 0,243393563275045 
357	 0,276638010896178 
358	 0,297691749873064 
359	 0,275160092255633 
360	 0,210207837524395 
361	 0,21261956704145 
362	 0,25193476582344 
363	 0,26084314127446 
364	 0,250696999147061 
365	 0,233331535856664 
366	 0,243966275765191 
367	 0,266449200249925 
368	 0,28687864545246 
369	 0,282316361838853 
370	 0,269213165169639 
371	 0,282438506897526 
372	 0,286272229490721 
373	 0,27737953231128 
374	 0,287683490989436 
375	 0,294203336336467 
376	 0,28366204328111 
377	 0,298089105240962 
378	 0,316429595971316 
379	 0,282328212565208 
380	 0,267334712510331 
381	 0,289216036589723 
382	 0,297518983245582 
383	 0,298347243328308 
384	 0,299660279113613 
385	 0,294523106027896 
386	 0,286923324790392 
387	 0,287585102372766 
388	 0,295518010137531 
389	 0,308697153509035 
390	 0,322480485249732 
391	 0,32874899147855 
392	 0,318515579133761 
393	 0,310616241888998 
394	 0,30912374112883 
395	 0,312691166572843 
396	 0,313469802621447 
397	 0,307673810919741 
398	 0,299707953673925 
399	 0,297515523717015 
400	 0,311694088060271 
401	 0,319131374779999 
402	 0,316192024084961 
403	 0,31334434446766 
404	 0,31155992261304 
405	 0,31108218692518 
406	 0,310190803412174 
407	 0,308133986353728 
408	 0,303155754606406 
409	 0,304706117614288 
410	 0,312373316154213 
411	 0,312471687714183 
412	 0,30865512035848 
413	 0,305348476058556 
414	 0,308736218482626 
415	 0,315309069184153 
416	 0,312803290381766 
417	 0,30972984442044 
418	 0,309832175862233 
419	 0,313225092646305 
420	 0,3168570245702 
421	 0,3172051907955 
422	 0,316915876597918 
423	 0,316430395684072 
424	 0,314306127065315 
425	 0,315479788938918 
426	 0,321797089587313 
427	 0,323551654592134 
428	 0,320638120800031 
429	 0,314715722898564 
430	 0,31336605285278 
431	 0,317489941238374 
432	 0,319166828661073 
433	 0,319813414503381 
434	 0,32085972562341 
435	 0,319226792353106 
436	 0,31690429527738 
437	 0,32014353944886 
438	 0,32349532036531 
439	 0,324745993049461 
440	 0,325271615239409 
441	 0,325290126345972 
442	 0,324933736316389 
443	 0,326090648205055 
444	 0,327777172784128 
445	 0,324752987191137 
446	 0,323168554944464 
447	 0,326271550834676 
448	 0,326947716578871 
449	 0,326337391527033 
450	 0,328456638879484 
451	 0,329884620387026 
452	 0,330378104561115 
453	 0,334057154286759 
454	 0,336324191632639 
455	 0,333041287548744 
456	 0,329007407751302 
457	 0,326054092459063 
458	 0,32609129088214 
459	 0,32696036155428 
460	 0,327756213038552 
461	 0,329313003561675 
462	 0,331581346850636 
463	 0,334431279796967 
464	 0,335908348857772 
465	 0,335757528891621 
466	 0,335225132924074 
467	 0,333908273286264 
468	 0,331776185110357 
469	 0,330607408377276 
470	 0,330617668974486 
471	 0,33161101106112 
472	 0,3329351493221 
473	 0,334339227244028 
474	 0,336809770309655 
475	 0,336868203197337 
476	 0,331526053914439 
477	 0,330853853196776 
478	 0,334278832472476 
479	 0,334390093037772 
480	 0,333103593042869 
481	 0,33155256101112 
482	 0,331813265024411 
483	 0,33314097189175 
484	 0,334140010772525 
485	 0,334056558285007 
486	 0,333273651285522 
487	 0,334028378417076 
488	 0,335805757398112 
489	 0,337834997571806 
490	 0,336522281668264 
491	 0,33360474345468 
492	 0,334237148103777 
493	 0,335101950840427 
494	 0,335102028829185 
495	 0,334567591667013 
496	 0,334263366901375 
497	 0,335000294759739 
498	 0,335534930139149 
499	 0,335394618527787 
500	 0,333868086011255 
501	 0,333464913903678 
502	 0,335335630925351 
503	 0,336516549498507 
504	 0,336401894230364 
505	 0,334476096628555 
506	 0,334372321545113 
507	 0,336683101720225 
508	 0,338649636946558 
509	 0,3396425307726 
510	 0,339363222016751 
511	 0,340105737623488 
512	 0,341483661745589 
513	 0,341094741026516 
514	 0,341534450524096 
515	 0,343529301402393 
516	 0,344150474864505 
517	 0,343845629647124 
518	 0,343659284753091 
519	 0,343214843983952 
520	 0,342801602425698 
521	 0,343714777645738 
522	 0,344150555458153 
523	 0,342972130648088 
524	 0,342784569435733 
525	 0,34356804040063 
526	 0,344413057486321 
527	 0,344889612568877 
528	 0,344857185580555 
529	 0,344850538545323 
530	 0,344863972744994 
531	 0,344836807216708 
532	 0,344132173090538 
533	 0,343297410156087 
534	 0,344529403744942 
535	 0,345460516155158 
536	 0,344855527852482 
537	 0,345098286313478 
538	 0,345741974288759 
539	 0,345381636346224 
540	 0,344989707661166 
541	 0,34478087412271 
542	 0,34413406136673 
543	 0,34410822461424 
544	 0,345645860235441 
545	 0,346319317587156 
546	 0,346232096628339 
547	 0,347327010647485 
548	 0,347695783305552 
549	 0,346763659721088 
550	 0,347372286670337 
551	 0,348601520961925 
552	 0,348568298887793 
553	 0,348169911006045 
554	 0,347735363290365 
555	 0,34747057894509 
556	 0,347728867903743 
557	 0,34867011522357 
558	 0,348596630889064 
559	 0,347788828070892 
560	 0,347781030837433 
561	 0,347686217521518 
562	 0,347234936167581 
563	 0,346902672379674 
564	 0,34653793181367 
565	 0,345876614789718 
566	 0,346193561984532 
567	 0,347361978658661 
568	 0,347755910087459 
569	 0,347963417756551 
570	 0,348457868331586 
571	 0,349585642043798 
572	 0,351131912472218 
573	 0,352569052127853 
574	 0,353637232073489 
575	 0,354495653747105 
576	 0,356661667406249 
577	 0,35883436316226 
578	 0,359503363981091 
579	 0,361217598706392 
580	 0,36361709699961 
581	 0,363616251711116 
582	 0,363948598393349 
583	 0,365932404587743 
584	 0,366774942129462 
585	 0,366805983561129 
586	 0,367196880231289 
587	 0,368084735369493 
588	 0,369348624660694 
589	 0,370047127856708 
590	 0,370703029664026 
591	 0,371782123036438 
592	 0,372065779918576 
593	 0,37179276846471 
594	 0,372217816777423 
595	 0,372805436001774 
596	 0,373277987071095 
597	 0,373471210103503 
598	 0,373379278279172 
599	 0,373024542500038 
600	 0,372869872059592 
601	 0,372807543309595 
602	 0,371749331020777 
603	 0,370977580984161 
604	 0,371408554773418 
605	 0,371270784037965 
606	 0,370466743498463 
607	 0,369582512686415 
608	 0,368293676744812 
609	 0,366879205986668 
610	 0,367391759130372 
611	 0,368145280839067 
612	 0,366895140719507 
613	 0,365393251815652 
614	 0,36430249056389 
615	 0,364264308704008 
616	 0,364290054322148 
617	 0,363830172806113 
618	 0,364196636355514 
619	 0,364847931811953 
620	 0,364363924830316 
621	 0,36402228073729 
622	 0,364077859093963 
623	 0,363591105226426 
624	 0,363129885585109 
625	 0,363326555398275 
626	 0,364108424321818 
627	 0,365024637992772 
628	 0,364849917852428 
629	 0,364710007775404 
630	 0,365200361064265 
631	 0,366050686135359 
632	 0,366911502567501 
633	 0,36727379432045 
634	 0,367837777838835 
635	 0,368664481435254 
636	 0,369026712196133 
637	 0,369660150596838 
638	 0,371133952533011 
639	 0,372269580834832 
640	 0,372944719922668 
641	 0,373377861815365 
642	 0,374150615711508 
643	 0,375341476101919 
644	 0,375791070251056 
645	 0,375783458364378 
646	 0,375834218362191 
647	 0,375575355725666 
648	 0,375040686752746 
649	 0,374552547878079 
650	 0,374218860211508 
651	 0,374013490526588 
652	 0,373025424984155 
653	 0,371498196042352 
654	 0,370145226448929 
655	 0,369176192018175 
656	 0,368430123175466 
657	 0,366576881486969 
658	 0,364624800695993 
659	 0,363654272087198 
660	 0,362151548421864 
661	 0,360159330198678 
662	 0,358765175111665 
663	 0,35734371759779 
664	 0,355697203097022 
665	 0,354754874941543 
666	 0,35395663455316 
667	 0,35225260603524 
668	 0,350985077327862 
669	 0,35045296987523 
670	 0,350133482571698 
671	 0,350070203303585 
672	 0,350236281431325 
673	 0,349866187723948 
674	 0,349190168964048 
675	 0,349036779998693 
676	 0,349204796495229 
677	 0,349545719383162 
678	 0,349555118766153 
679	 0,349493382474441 
680	 0,349720405996731 
681	 0,350186542971352 
682	 0,350874187324317 
683	 0,351689577933173 
684	 0,352786322688394 
685	 0,354257404911395 
686	 0,355922175203873 
687	 0,358085174867088 
688	 0,361324083934055 
689	 0,364842830110787 
690	 0,368587220836859 
691	 0,373402343683019 
692	 0,378954754150732 
693	 0,384934392234626 
694	 0,391651347336966 
695	 0,399143859334698 
696	 0,40755771269256 
697	 0,415838034324187 
698	 0,423776331237986 
699	 0,433247115187941 
700	 0,443477077370837 
701	 0,45326503754909 
702	 0,462807855520139 
703	 0,472036310951872 
704	 0,480826339850015 
705	 0,489282119872452 
706	 0,497472462040177 
707	 0,505334827534705 
708	 0,512772073521364 
709	 0,519628665661832 
710	 0,526026990591341 
711	 0,53206555543864 
712	 0,538017201689848 
713	 0,543524665511345 
714	 0,548237054895142 
715	 0,552376678727589 
716	 0,556225515812345 
717	 0,560380402667975 
718	 0,564152664958894 
719	 0,56731602010938 
720	 0,570494484205784 
721	 0,573363821867032 
722	 0,575455357056785 
723	 0,577649697978379 
724	 0,580003615045624 
725	 0,581884919105927 
726	 0,583637514705336 
727	 0,58546362472328 
728	 0,587167843959495 
729	 0,588640884048443 
730	 0,58977050851718 
731	 0,590432292080117 
732	 0,590828655261501 
733	 0,5918417701566 
734	 0,593165888276769 
735	 0,59445647367429 
736	 0,595267564628153 
737	 0,595766845533081 
738	 0,596677198597566 
739	 0,597188380690277 
740	 0,597157734616829 
741	 0,597582179944174 
742	 0,598100055047051 
743	 0,598206278619538 
744	 0,598348706399826 
745	 0,598691394285566 
746	 0,599513331395853 
747	 0,599805693446977 
748	 0,599226693848993 
749	 0,59959598939074 
750	 0,600418870039749 
751	 0,600620024757049 
752	 0,600296322579461 
753	 0,599788869053417 
754	 0,600310648460944 
755	 0,600909840118318 
756	 0,600910784728978 
757	 0,601050787335781 
758	 0,601237232943568 
759	 0,601058147167456 
760	 0,600846752669613 
761	 0,600797218167219 
762	 0,601277626389856 
763	 0,601574273387773 
764	 0,601059343621376 
765	 0,60089179221817 
766	 0,601092220609626 
767	 0,601088626253119 
768	 0,601127557404575 
769	 0,601297512732672 
770	 0,601613857872978 
771	 0,601891552800112 
772	 0,60191061318997 
773	 0,601368417693965 
774	 0,600648526585124 
775	 0,601053948227221 
776	 0,601669694630696 
777	 0,60194114631444 
778	 0,601642974569029 
779	 0,601192589145582 
780	 0,601231525440753 
781	 0,601438990981217 
782	 0,601690085627974 
783	 0,601868443842538 
784	 0,601921585091545 
785	 0,601830803133483 
786	 0,601758919692192 
787	 0,601708966707356 
788	 0,601637671859378 
789	 0,601532525728883 
790	 0,601423251369445 
791	 0,601445346764191 
792	 0,60148739598478 
793	 0,601444125166095 
794	 0,601187151510346 
795	 0,600954966277054 
796	 0,601305057729681 
797	 0,601623133163966 
798	 0,601660020654635 
799	 0,601366480077119 
800	 0,601034390165981 
801	 0,600953862553093 
802	 0,601199053870179 
803	 0,601524770247952 
804	 0,601247349320311 
805	 0,601135504510078 
806	 0,601431773770416 
807	 0,60179508645102 
808	 0,601992688014707 
809	 0,601819873458914 
810	 0,60164342907907 
811	 0,601553677628408 
812	 0,601492072818857 
813	 0,60176699101299 
814	 0,602304395479551 
815	 0,601896285315482 
816	 0,60120890499083 
817	 0,60115313491933 
818	 0,601413913399971 
819	 0,601870926622133 
820	 0,602440534610171 
821	 0,602605739629716 
822	 0,602206533046785 
823	 0,60205559160243 
824	 0,602053975289153 
825	 0,60196378059484 
826	 0,602141676843273 
827	 0,602486892109723 
828	 0,602463870081916 
829	 0,602262220680476 
830	 0,602054197809539 
831	 0,602262583039183 
832	 0,6026591873826 
833	 0,602868133375693 
834	 0,602659529885079 
835	 0,602185531256884 
836	 0,602108003078164 
837	 0,602298470477998 
838	 0,602607238766604 
839	 0,602510200596506 
840	 0,602174841129495 
841	 0,601926530498533 
842	 0,602247215596527 
843	 0,602856103736868 
844	 0,602380575640724 
845	 0,601909934198609 
846	 0,602033107184377 
847	 0,602318220998898 
848	 0,602545354768673 
849	 0,602481761519415 
850	 0,602322867420915 
851	 0,602189875486574 
852	 0,602350453068875 
853	 0,602158396265587 
854	 0,601464609385831 
855	 0,601834615169724 
856	 0,602471939830485 
857	 0,602072074535782 
858	 0,601794174052853 
859	 0,601863437241783 
860	 0,602142012030901 
861	 0,601941162556222 
862	 0,601162163929842 
863	 0,601754648454539 
864	 0,602694243965249 
865	 0,602412110741125 
866	 0,602234985417758 
867	 0,60242540000043 
868	 0,602866860960099 
869	 0,60303274407418 
870	 0,602722178967624 
871	 0,602480320801148 
872	 0,602396382354466 
873	 0,602503908138088 
874	 0,602696111117051 
875	 0,602906970427188 
876	 0,603146902871382 
877	 0,602811583063691 
878	 0,60194831449617 
879	 0,602392797745064 
880	 0,602975956161845 
881	 0,602350732421067 
882	 0,602159108856436 
883	 0,602466902997899 
884	 0,602589166169388 
885	 0,6026138124973 
886	 0,602548071142989 
887	 0,602422956525181 
888	 0,602292919935101 
889	 0,602229788203954 
890	 0,602642841942231 
891	 0,602926537004096 
892	 0,601552118785738 
893	 0,600746297653025 
894	 0,601097409398664 
895	 0,601622712266454 
896	 0,601846668445978 
897	 0,601526260444301 
898	 0,601999981560047 
899	 0,602714414941927 
900	 0,602318411501839 
901	 0,602122207349075 
902	 0,602324296894188 
903	 0,602247890813728 
904	 0,601804083054922 
905	 0,601105420962466 
906	 0,601450800657181 
907	 0,601867232186958 
908	 0,600784851449252 
909	 0,600808901970479 
910	 0,601872242362822 
911	 0,60166392267752 
912	 0,601407732733524 
913	 0,601668020593271 
914	 0,602212394329908 
915	 0,602843533711999 
916	 0,603313143795856 
917	 0,602740689929039 
918	 0,601721209075875 
919	 0,602271554275533 
920	 0,602236732088511 
921	 0,60126335446126 
922	 0,601365863804789 
923	 0,601909720856262 
924	 0,602213766132219 
925	 0,601794149083804 
926	 0,600898049556457 
927	 0,600104240908852 
928	 0,599907644596895 
929	 0,600167856254612 
930	 0,5996629571146 
931	 0,599381159857934 
932	 0,599860741126294 
933	 0,600674754697591 
934	 0,600803056764151 
935	 0,599129372548857 
936	 0,598525785407007 
937	 0,599058150002908 
938	 0,598913933937117 
939	 0,598894039963498 
940	 0,599071896471077 
941	 0,598600305102954 
942	 0,597541776539322 
943	 0,596187050347432 
944	 0,596399764691066 
945	 0,597323905703107 
946	 0,596782850462916 
947	 0,596620022787667 
948	 0,596754742437963 
949	 0,594929215331355 
950	 0,593525285962591 
951	 0,593733804956079 
952	 0,593538563756684 
953	 0,593041510292757 
954	 0,592639238748527 
955	 0,593078664478541 
956	 0,593323829195744 
957	 0,590014947045057 
958	 0,588936082891448 
959	 0,591061586178534 
960	 0,590809490535472 
961	 0,589779417070735 
962	 0,589418657281947 
963	 0,59005156513023 
964	 0,590750841449437 
965	 0,590053993819713 
966	 0,588994245597817 
967	 0,58816859515381 
968	 0,588645236701232 
969	 0,588422629734211 
970	 0,587013655144287 
971	 0,586962887188411 
972	 0,586778192328091 
973	 0,585251998590337 
974	 0,586140297440242 
975	 0,587997978006722 
976	 0,587172753986579 
977	 0,587122005648272 
978	 0,588291188449379 
979	 0,58895000660055 
980	 0,589033516755339 
981	 0,588718210829343 
982	 0,589429540041798 
983	 0,590264224463718 
984	 0,590191062535226 
985	 0,5896228159224 
986	 0,588693257079778 
987	 0,587446682617137 
988	 0,58747599030763 
989	 0,588693547880743 
990	 0,589025923976479 
991	 0,588742143508597 
992	 0,588408951018546 
993	 0,590647571059199 
994	 0,592734097537081 
995	 0,591780102928416 
996	 0,590708798608684 
997	 0,590784928293508 
998	 0,593357340477485 
999	 0,594708866729733 
1000	 0,593976104445012 
1001	 0,592180576863388 
1002	 0,592397331361219 
1003	 0,595552510284046 
1004	 0,597114154699396 
1005	 0,59683856501314 
1006	 0,595089076760439 
1007	 0,594084453821069 
1008	 0,594144233936396 
1009	 0,594940760208779 
1010	 0,59569835054805 
1011	 0,596086426946102 
1012	 0,595865860684188 
1013	 0,59652716832957 
1014	 0,59821217712712 
1015	 0,598170432906431 
1016	 0,596931778790846 
1017	 0,595432301236033 
1018	 0,596250012065857 
1019	 0,599018793693021 
1020	 0,60247515721734 
1021	 0,601574609822703 
1022	 0,597014109271255 
1023	 0,594351194087606 
1024	 0,593609130127538 
1025	 0,594921042406869 
1026	 0,597946552799501 
1027	 0,599323498707991 
1028	 0,597776692311637 
1029	 0,600363543246207 
1030	 0,604165201316166 
1031	 0,604854261110168 
1032	 0,603391161909307 
1033	 0,601694229734701 
1034	 0,6033330227535 
1035	 0,603166397478575 
1036	 0,601071295824476 
1037	 0,602251432870924 
1038	 0,601591054604098 
1039	 0,598524984398622 
1040	 0,603063156704852 
1041	 0,60521369205704 
1042	 0,598398764970917 
1043	 0,602715992218718 
1044	 0,610307467706739 
1045	 0,607295494646005 
1046	 0,606932507044324 
1047	 0,608666721957626 
1048	 0,604539794775648 
1049	 0,60005584229213 
1050	 0,596793902984299 
1051	 0,594473810959078 
1052	 0,594817995017148 
1053	 0,598141428419885 
1054	 0,601747239402743 
1055	 0,605537825931157 
1056	 0,608880686947357 
1057	 0,607117264480349 
1058	 0,604296224026765 
1059	 0,606325381340901 
1060	 0,604081882310665 
1061	 0,60104280446932 
1062	 0,610002814028994 
1063	 0,61032027291094 
1064	 0,600133158328506 
1065	 0,596018981025572 
1066	 0,596326498111582 
1067	 0,600198957070112 
1068	 0,607661315913808 
1069	 0,602975644213597 
1070	 0,580449696058341 
1071	 0,586071361428453 
1072	 0,601228306583149 
1073	 0,596321804255401 
1074	 0,599045224192507 
1075	 0,606462125927532 
