Wavelength	PENFOUL00586.asd
325	 0,040957363264024 
326	 0,253678418180855 
327	 0,391724198346996 
328	 0,343026074987095 
329	 0,294245193051188 
330	 0,22474996173252 
331	 0,167296942134121 
332	 0,138496719420949 
333	 0,130088193469478 
334	 0,200506177435235 
335	 0,196215593703208 
336	 0,110452573291464 
337	 0,132757253749943 
338	 0,156338631443687 
339	 8,71567416416675E-02 
340	 0,119304283584174 
341	 0,184921162327071 
342	 0,107626298453854 
343	 6,43992467832459E-02 
344	 0,100351696476564 
345	 9,91395368555198E-02 
346	 6,48014201876677E-02 
347	 2,09474361815515E-02 
348	 6,15469646947287E-02 
349	 0,134925537877479 
350	 7,28257740228183E-02 
351	 2,28175903264538E-02 
352	 3,28732738825243E-02 
353	 2,83724335329658E-02 
354	 2,28454489099342E-02 
355	 3,50134483358576E-02 
356	 0,038498806976666 
357	 3,63975615942828E-02 
358	 0,055069696415485 
359	 6,95605302344841E-02 
360	 7,01763410092881E-02 
361	 5,90023463800727E-02 
362	 4,62743637728558E-02 
363	 4,71733743922493E-02 
364	 4,94158612033897E-02 
365	 4,93004275271024E-02 
366	 4,27929858105479E-02 
367	 4,36854278629447E-02 
368	 5,73795279337442E-02 
369	 5,73306969846762E-02 
370	 5,35619003699582E-02 
371	 7,14347938872778E-02 
372	 0,062712119009546 
373	 3,23610025890174E-02 
374	 6,91265621763447E-02 
375	 0,09314375337193 
376	 5,56528902527301E-02 
377	 5,73514949335404E-02 
378	 8,15805156625524E-02 
379	 5,97503096071962E-02 
380	 3,23223652997279E-02 
381	 1,76667067299884E-02 
382	 2,22198194301779E-02 
383	 4,08879522124851E-02 
384	 0,067492475967934 
385	 6,26178511814905E-02 
386	 0,037062921145309 
387	 3,73808289094331E-02 
388	 4,78972197533049E-02 
389	 5,93748627348256E-02 
390	 5,63659292288845E-02 
391	 4,95107692751504E-02 
392	 5,27870102077533E-02 
393	 4,86234437960976E-02 
394	 4,00524405505149E-02 
395	 4,77625651120026E-02 
396	 5,09984895341799E-02 
397	 4,09200173576683E-02 
398	 3,74883330747481E-02 
399	 4,00191212992143E-02 
400	 4,44544533830312E-02 
401	 4,07899405233179E-02 
402	 3,14458967874935E-02 
403	 3,55537398560367E-02 
404	 0,044701232764947 
405	 5,17314444348479E-02 
406	 4,65409199941419E-02 
407	 3,65829579865146E-02 
408	 4,05943607404074E-02 
409	 4,26145112054679E-02 
410	 3,94806479399655E-02 
411	 3,88015147688197E-02 
412	 3,94344221608969E-02 
413	 3,99746850040074E-02 
414	 4,05347247302829E-02 
415	 4,07681029064728E-02 
416	 4,01052609572789E-02 
417	 0,037617527176183 
418	 3,47307824944878E-02 
419	 4,23757766634507E-02 
420	 4,93171672903466E-02 
421	 0,041149491101401 
422	 3,75405855168725E-02 
423	 4,02855990104581E-02 
424	 3,84262154422732E-02 
425	 3,72020664903994E-02 
426	 3,92680542624161E-02 
427	 3,95834401583933E-02 
428	 3,86630390503526E-02 
429	 3,85870458457203E-02 
430	 3,87160719905404E-02 
431	 3,89752135809255E-02 
432	 3,98637491778282E-02 
433	 0,039724121595138 
434	 0,037449185660381 
435	 3,86789288893955E-02 
436	 4,24718034568353E-02 
437	 4,40254366472565E-02 
438	 4,42013580993656E-02 
439	 0,043716985556039 
440	 4,55229360774719E-02 
441	 4,73612781590454E-02 
442	 4,61027982586919E-02 
443	 4,32150014389311E-02 
444	 4,03592166953975E-02 
445	 4,14194918867633E-02 
446	 4,36394702520735E-02 
447	 4,50849080444745E-02 
448	 4,52437317624587E-02 
449	 4,50725384937894E-02 
450	 4,66790428966411E-02 
451	 4,67854948087965E-02 
452	 4,51061511388023E-02 
453	 4,49091262970257E-02 
454	 4,59836206400089E-02 
455	 4,77696915158527E-02 
456	 4,69221733698992E-02 
457	 4,41286029553753E-02 
458	 4,26749764662653E-02 
459	 4,30695845231512E-02 
460	 4,51153707124374E-02 
461	 4,55812755154071E-02 
462	 4,49998804752305E-02 
463	 4,45368164334558E-02 
464	 4,39683989349237E-02 
465	 4,35656566860854E-02 
466	 4,41337988557364E-02 
467	 4,52537175765939E-02 
468	 0,046421969791784 
469	 4,57444031792228E-02 
470	 4,45214830720975E-02 
471	 4,56362257464591E-02 
472	 4,86325392424171E-02 
473	 5,20692740232907E-02 
474	 5,03523721532502E-02 
475	 0,047186791942878 
476	 0,046498586233854 
477	 4,67109884999408E-02 
478	 4,74992235454673E-02 
479	 4,89157954140318E-02 
480	 4,94621998497393E-02 
481	 4,86069419919314E-02 
482	 4,80918555757658E-02 
483	 4,82918642374953E-02 
484	 0,049449770155036 
485	 0,050130144870876 
486	 4,99063108761165E-02 
487	 4,85934333444753E-02 
488	 4,88855725097923E-02 
489	 5,23457042074511E-02 
490	 5,29003897442818E-02 
491	 5,09165122013028E-02 
492	 4,92839051401296E-02 
493	 0,04886646533473 
494	 4,99446384757063E-02 
495	 5,13763311005739E-02 
496	 5,18762212817952E-02 
497	 5,02030353056746E-02 
498	 4,90504196173058E-02 
499	 4,90924348678384E-02 
500	 5,00434089696411E-02 
501	 5,16594536251515E-02 
502	 5,34964643183463E-02 
503	 5,38576768104596E-02 
504	 5,30381673972932E-02 
505	 5,18898409724467E-02 
506	 5,09701124758737E-02 
507	 5,08787354685045E-02 
508	 5,30446251674533E-02 
509	 5,48444308439252E-02 
510	 5,40982792706348E-02 
511	 5,47735504505004E-02 
512	 5,64379264029171E-02 
513	 5,60144434798444E-02 
514	 5,54076149366122E-02 
515	 5,53678615365266E-02 
516	 5,49562593741408E-02 
517	 5,49578729585685E-02 
518	 5,65773421536289E-02 
519	 5,72550798688082E-02 
520	 5,68113393913395E-02 
521	 5,72279217258951E-02 
522	 5,77712227365564E-02 
523	 5,79328656420546E-02 
524	 0,058470547833392 
525	 5,90983891084367E-02 
526	 5,88891457943231E-02 
527	 5,88497908088577E-02 
528	 5,92471197163818E-02 
529	 5,95243497980095E-02 
530	 0,059559896182792 
531	 5,92737323225324E-02 
532	 5,89447741148215E-02 
533	 5,89590326805144E-02 
534	 6,03716980064664E-02 
535	 6,12094174145779E-02 
536	 6,04776171305331E-02 
537	 0,060422730592692 
538	 6,10880719025149E-02 
539	 0,062058044741503 
540	 0,062285683832883 
541	 6,16376531421743E-02 
542	 6,12035259200005E-02 
543	 6,14206358387803E-02 
544	 6,25773148231688E-02 
545	 6,31617134803504E-02 
546	 0,063053418693943 
547	 6,29312174844773E-02 
548	 6,25271139042474E-02 
549	 0,062026977856326 
550	 6,33807937397386E-02 
551	 6,52824487238944E-02 
552	 6,54798508301622E-02 
553	 6,47062345105934E-02 
554	 6,36423376997744E-02 
555	 0,064070132806825 
556	 0,064956113734911 
557	 6,54093745812243E-02 
558	 6,60796423394256E-02 
559	 6,67196274026285E-02 
560	 6,65477129981181E-02 
561	 0,065954556767823 
562	 6,52930173982049E-02 
563	 6,56193393331383E-02 
564	 6,59723286353494E-02 
565	 6,49652190368489E-02 
566	 6,48394813593638E-02 
567	 6,58141626254496E-02 
568	 6,65809533320019E-02 
569	 6,69409055114653E-02 
570	 0,066841923568548 
571	 6,72955335104892E-02 
572	 6,81872484895304E-02 
573	 6,89798495057331E-02 
574	 0,069206449459127 
575	 6,89712436878437E-02 
576	 6,98941117229372E-02 
577	 7,10992328527314E-02 
578	 7,14939618980781E-02 
579	 7,21431128413122E-02 
580	 7,28616253904334E-02 
581	 7,22251136354537E-02 
582	 7,20483259367451E-02 
583	 7,32590941598686E-02 
584	 0,074275387287444 
585	 0,074914631208919 
586	 0,07529171132563 
587	 7,52989227066819E-02 
588	 7,51125979579285E-02 
589	 7,54932327042999E-02 
590	 7,61154677432488E-02 
591	 7,66205115968494E-02 
592	 7,68025503882703E-02 
593	 7,67781512767548E-02 
594	 7,70113571831807E-02 
595	 7,71457338863239E-02 
596	 7,71197829690568E-02 
597	 7,76794286154091E-02 
598	 0,078263353423878 
599	 7,79329157663722E-02 
600	 7,75833943965361E-02 
601	 7,74336191891774E-02 
602	 0,077242379460779 
603	 7,71636340107687E-02 
604	 7,72856339330581E-02 
605	 7,70938298526384E-02 
606	 7,68630718865501E-02 
607	 7,76525794442026E-02 
608	 7,75173894073176E-02 
609	 7,62082950976647E-02 
610	 7,69139660090278E-02 
611	 7,81777906388512E-02 
612	 7,79006776935756E-02 
613	 7,70777140717275E-02 
614	 0,076211057956671 
615	 7,61096218655533E-02 
616	 7,62148674750116E-02 
617	 7,61762827512723E-02 
618	 7,63196623868244E-02 
619	 7,65124574872323E-02 
620	 7,64246662062339E-02 
621	 7,63525599018218E-02 
622	 7,63832744181354E-02 
623	 7,64426005483209E-02 
624	 7,64319811932793E-02 
625	 7,62783140830352E-02 
626	 7,67236490535977E-02 
627	 7,74020181373603E-02 
628	 0,076710026865429 
629	 7,63499381279129E-02 
630	 7,71255431480189E-02 
631	 7,79823424021356E-02 
632	 7,85141146086796E-02 
633	 7,82798088418421E-02 
634	 7,82997738868989E-02 
635	 0,078792008807756 
636	 7,91698827307134E-02 
637	 7,97175538532406E-02 
638	 8,06305620854672E-02 
639	 8,10373640843824E-02 
640	 8,11434660689897E-02 
641	 8,19889984545696E-02 
642	 8,23173337236726E-02 
643	 0,08183409871786 
644	 8,19920838862924E-02 
645	 0,082530664716789 
646	 8,29337297305346E-02 
647	 8,31249777404952E-02 
648	 0,083030959370506 
649	 8,24382681144354E-02 
650	 8,23873740121111E-02 
651	 8,33760699041082E-02 
652	 8,31464835121395E-02 
653	 8,20370443442851E-02 
654	 8,13722776290035E-02 
655	 8,12169852009226E-02 
656	 8,13931724162457E-02 
657	 8,06431837339396E-02 
658	 7,97412907041534E-02 
659	 7,95429894029339E-02 
660	 7,91317060927928E-02 
661	 7,84610556472381E-02 
662	 0,077982339797549 
663	 7,74415202428115E-02 
664	 7,67456637025878E-02 
665	 7,61926704499385E-02 
666	 7,56264507176931E-02 
667	 7,47396050138502E-02 
668	 7,39413566323184E-02 
669	 7,35438420510506E-02 
670	 7,42204040925915E-02 
671	 7,49247641165839E-02 
672	 7,48006099106552E-02 
673	 7,43123522796979E-02 
674	 7,37304335357879E-02 
675	 7,33524928895229E-02 
676	 7,36921194399629E-02 
677	 7,46770933610473E-02 
678	 7,46810754303545E-02 
679	 7,43899459827692E-02 
680	 7,47730383533393E-02 
681	 7,54555414078512E-02 
682	 7,61803848332891E-02 
683	 7,64174142533591E-02 
684	 7,65525614094823E-02 
685	 7,68869621779977E-02 
686	 7,77332721347712E-02 
687	 7,90069448447498E-02 
688	 8,04849758371595E-02 
689	 8,20334046680472E-02 
690	 0,08361447360825 
691	 8,53346853818834E-02 
692	 8,72773998524568E-02 
693	 8,95057573469853E-02 
694	 9,18580130959392E-02 
695	 9,43093006568107E-02 
696	 9,69104765873802E-02 
697	 9,95859907150292E-02 
698	 0,102352064276641 
699	 0,105547679039391 
700	 0,1088554389281 
701	 0,111839888902568 
702	 0,114735110197477 
703	 0,117570533490695 
704	 0,120279305611598 
705	 0,122948449235544 
706	 0,125610493171718 
707	 0,12801963543652 
708	 0,130264989748934 
709	 0,132591779226536 
710	 0,134713911944722 
711	 0,13651637734101 
712	 0,137972524953082 
713	 0,139175771960805 
714	 0,140240970984032 
715	 0,141601512612029 
716	 0,143154127165612 
717	 0,144397869974857 
718	 0,145584150165106 
719	 0,146755810866101 
720	 0,147620402955302 
721	 0,148297818381897 
722	 0,148972535504178 
723	 0,149919094665268 
724	 0,151046394987758 
725	 0,151867432567027 
726	 0,152285680469168 
727	 0,152375119825658 
728	 0,153328348736626 
729	 0,154446388420565 
730	 0,154155158115168 
731	 0,154194023490622 
732	 0,154965564404981 
733	 0,155777908866152 
734	 0,156280129976797 
735	 0,156242008580809 
736	 0,156575997641725 
737	 0,157206962814395 
738	 0,157516613840209 
739	 0,157730422189967 
740	 0,157938621597356 
741	 0,158252261376255 
742	 0,158483394727726 
743	 0,158417576007005 
744	 0,158777786792949 
745	 0,15950593780227 
746	 0,159968624110141 
747	 0,160035441839371 
748	 0,159742178824343 
749	 0,159970341174938 
750	 0,160458197778492 
751	 0,16062174432892 
752	 0,161028200915221 
753	 0,161627865969607 
754	 0,161717863049356 
755	 0,161602177545567 
756	 0,16154702276924 
757	 0,16173879643556 
758	 0,162148305379 
759	 0,162690503434894 
760	 0,16283266204418 
761	 0,162593137314355 
762	 0,163056674020339 
763	 0,163429368522436 
764	 0,162990530810614 
765	 0,163153686445788 
766	 0,163887897733443 
767	 0,164441800090015 
768	 0,164765769547501 
769	 0,164798404623679 
770	 0,164505412242132 
771	 0,164427327373563 
772	 0,16516251947726 
773	 0,165516798139867 
774	 0,165364988838707 
775	 0,165173857401847 
776	 0,165331103867094 
777	 0,165952180438894 
778	 0,166180690008783 
779	 0,166144924889595 
780	 0,166179872655531 
781	 0,166484369702312 
782	 0,166955294989931 
783	 0,166975242535341 
784	 0,167021690860043 
785	 0,167360624984497 
786	 0,167361374953224 
787	 0,16729849439335 
788	 0,167832435222575 
789	 0,168036618601468 
790	 0,167839899709869 
791	 0,168220999419185 
792	 0,168506653216143 
793	 0,168212051153834 
794	 0,168377061203916 
795	 0,168813728548184 
796	 0,168702842920838 
797	 0,16897983812494 
798	 0,169707411106037 
799	 0,169647505398509 
800	 0,169468312122919 
801	 0,169833088663283 
802	 0,170216768541301 
803	 0,170493966608037 
804	 0,170634007052953 
805	 0,170513011394956 
806	 0,170250719084419 
807	 0,170714879367507 
808	 0,171236262370264 
809	 0,171068202972029 
810	 0,171148506011865 
811	 0,171394014507226 
812	 0,170926482395284 
813	 0,170971198041482 
814	 0,171841965291302 
815	 0,172075406892496 
816	 0,171889662657406 
817	 0,171713553915925 
818	 0,171819443566719 
819	 0,172206397593991 
820	 0,172636650873544 
821	 0,172995510807034 
822	 0,173145711894119 
823	 0,172712216371972 
824	 0,172319298139097 
825	 0,172787411873237 
826	 0,17344094628374 
827	 0,173907238592943 
828	 0,173548853244368 
829	 0,173417241946941 
830	 0,17395560348643 
831	 0,174082355155086 
832	 0,173972376716636 
833	 0,174024033185074 
834	 0,173690596100924 
835	 0,173159201813117 
836	 0,173434183570227 
837	 0,173733552629132 
838	 0,173703985937275 
839	 0,174087223461274 
840	 0,174582270533774 
841	 0,174666904236862 
842	 0,174748259755052 
843	 0,174854592968123 
844	 0,174737638123523 
845	 0,174570126591808 
846	 0,174530648251496 
847	 0,175170454157545 
848	 0,175684316340078 
849	 0,174891435797059 
850	 0,17475124388174 
851	 0,175461935890106 
852	 0,176047592135487 
853	 0,175907823577899 
854	 0,174955684594177 
855	 0,175153580916324 
856	 0,175796510320682 
857	 0,175620107747876 
858	 0,17558193818988 
859	 0,175844336776157 
860	 0,176259957465267 
861	 0,176343047910204 
862	 0,175943374499775 
863	 0,175911955849006 
864	 0,176189228125291 
865	 0,17656247497597 
866	 0,176661266940663 
867	 0,176622273717574 
868	 0,177240371828485 
869	 0,177587683693218 
870	 0,177262959995642 
871	 0,176714611639436 
872	 0,176503414536119 
873	 0,177189399841068 
874	 0,17712799100296 
875	 0,176561913188649 
876	 0,17731378697837 
877	 0,178062241235818 
878	 0,178205233816131 
879	 0,17778083906433 
880	 0,177289715708594 
881	 0,177261553429193 
882	 0,17722249928373 
883	 0,177244300330065 
884	 0,177817241622598 
885	 0,178071700549703 
886	 0,177850873939391 
887	 0,178156529427019 
888	 0,178600115618831 
889	 0,178767608208215 
890	 0,178850729701714 
891	 0,178850378562584 
892	 0,178658902500707 
893	 0,178888991542982 
894	 0,179496660812526 
895	 0,179356581968913 
896	 0,178991027466008 
897	 0,17887839810503 
898	 0,179191241089792 
899	 0,179511189812356 
900	 0,179029987797172 
901	 0,178903807474409 
902	 0,179322349978234 
903	 0,179727188508169 
904	 0,179661523999896 
905	 0,179015852275681 
906	 0,179221533167776 
907	 0,179872191240613 
908	 0,180131704066087 
909	 0,180767613371114 
910	 0,181415047348223 
911	 0,180291214600289 
912	 0,179862329060192 
913	 0,180996411431068 
914	 0,181201619905108 
915	 0,180996798068411 
916	 0,181168139891812 
917	 0,180866861575897 
918	 0,180389057433315 
919	 0,180897308763213 
920	 0,181171448672263 
921	 0,18092546443879 
922	 0,180989505747811 
923	 0,181079659734973 
924	 0,181009443906104 
925	 0,181693123565435 
926	 0,182507917854942 
927	 0,182144160593177 
928	 0,181213026070135 
929	 0,180220099861586 
930	 0,180108299699716 
931	 0,180910448021283 
932	 0,182332750313616 
933	 0,182459300876597 
934	 0,182020349954611 
935	 0,182215728127682 
936	 0,18140825146333 
937	 0,180251687107743 
938	 0,181573691358359 
939	 0,182684961816976 
940	 0,182550767380321 
941	 0,181654665437965 
942	 0,181102904694551 
943	 0,18174372805774 
944	 0,181856628889002 
945	 0,181673085038785 
946	 0,182167036611272 
947	 0,182615161656713 
948	 0,182726642217539 
949	 0,182271846530038 
950	 0,181732173069726 
951	 0,181433912812383 
952	 0,181369652919425 
953	 0,181537345738906 
954	 0,181873051313063 
955	 0,181049830802675 
956	 0,179794376931948 
957	 0,18067994507638 
958	 0,181729109708412 
959	 0,182143239622129 
960	 0,181731941254438 
961	 0,180984668432555 
962	 0,180534871956989 
963	 0,182354392227444 
964	 0,184150381855176 
965	 0,182161015984563 
966	 0,180114544267094 
967	 0,179365743198488 
968	 0,180870964676818 
969	 0,182528726148497 
970	 0,18324268162909 
971	 0,182984429947505 
972	 0,182500200744223 
973	 0,182482825739316 
974	 0,182690237291351 
975	 0,182456600072646 
976	 0,1806427534179 
977	 0,180043641237338 
978	 0,181163101467357 
979	 0,182731744753447 
980	 0,184279865832433 
981	 0,185326994975834 
982	 0,185346588602275 
983	 0,18453346449781 
984	 0,183326802552347 
985	 0,184026748870925 
986	 0,185191699228215 
987	 0,183110386235386 
988	 0,183005904911384 
989	 0,185179815551869 
990	 0,184900140905471 
991	 0,185162827199712 
992	 0,187019012679415 
993	 0,187026647677606 
994	 0,18629298346451 
995	 0,186266069441263 
996	 0,186509317273532 
997	 0,186758471113933 
998	 0,186553191154621 
999	 0,187481475759882 
1000	 0,189255287314428 
1001	 0,189276631961344 
1002	 0,18883106774913 
1003	 0,188650299994716 
1004	 0,188932085384836 
1005	 0,189151709054961 
1006	 0,188850952744902 
1007	 0,189173366469883 
1008	 0,189384065003058 
1009	 0,187815543736136 
1010	 0,189429557407208 
1011	 0,193055055566388 
1012	 0,190245008519179 
1013	 0,188173031655334 
1014	 0,18966102429814 
1015	 0,191685171155583 
1016	 0,192330524815595 
1017	 0,190694918857032 
1018	 0,193087229175135 
1019	 0,195441264070839 
1020	 0,190709158386906 
1021	 0,189942035648012 
1022	 0,192561162829496 
1023	 0,18882256727641 
1024	 0,187489239305355 
1025	 0,190314884303253 
1026	 0,190835725102088 
1027	 0,192951350666038 
1028	 0,198258725849211 
1029	 0,199617180793385 
1030	 0,196984713784747 
1031	 0,19189029832716 
1032	 0,190994526091685 
1033	 0,194330801693174 
1034	 0,198913743042716 
1035	 0,200565221421715 
1036	 0,198016521944569 
1037	 0,191598020269033 
1038	 0,188271115790263 
1039	 0,19130803081457 
1040	 0,198541328469311 
1041	 0,201319778459621 
1042	 0,194836618292894 
1043	 0,201338332436341 
1044	 0,209497463189596 
1045	 0,200638196536319 
1046	 0,192929034425646 
1047	 0,19176101253156 
1048	 0,200305709993395 
1049	 0,201729646709501 
1050	 0,193771890345113 
1051	 0,188889612533662 
1052	 0,192681770971693 
1053	 0,203984977208413 
1054	 0,200679053561574 
1055	 0,195709533947429 
1056	 0,20066067334117 
1057	 0,202143344736462 
1058	 0,200839085199489 
1059	 0,200054688423791 
1060	 0,194862428810768 
1061	 0,19030302120016 
1062	 0,199792629261262 
1063	 0,208546683005995 
1064	 0,210772812673283 
1065	 0,20155816292736 
1066	 0,203396482674875 
1067	 0,21948740966788 
1068	 0,207268295320187 
1069	 0,195710224784564 
1070	 0,203695950229246 
1071	 0,195899175241771 
1072	 0,186047571299259 
1073	 0,194803660379784 
1074	 0,195773041924632 
1075	 0,189305041717079 
