Wavelength	PENFOUL00167.asd
325	-0,111370198987544 
326	-5,28718811251788E-02 
327	 9,97193330031369E-02 
328	 0,210063975223288 
329	 7,91052373833703E-02 
330	-5,34676112717222E-02 
331	 2,16168007546828E-02 
332	 6,08747161226586E-02 
333	 7,40657845058928E-02 
334	 6,39153639609596E-02 
335	 4,75570670226435E-02 
336	 2,41548209762607E-02 
337	-5,64782991606439E-02 
338	-0,107525014566909 
339	-4,86127136244553E-02 
340	 0,013757562379779 
341	 5,57355711406337E-02 
342	 6,83687543018083E-02 
343	 4,90965851205644E-02 
344	 1,03105309520634E-02 
345	 4,32274176599205E-02 
346	 6,48645237644498E-02 
347	 1,39719926974177E-03 
348	 8,7370687154129E-03 
349	 6,08759002817692E-02 
350	 4,14800906067064E-02 
351	 6,12123101116751E-03 
352	-1,94963945758964E-02 
353	 5,22217374634778E-04 
354	 2,90504962992285E-02 
355	 3,08591532825063E-02 
356	 2,65349673458871E-02 
357	 2,02442265699098E-02 
358	 1,36425665469995E-02 
359	 8,55736792577538E-03 
360	 5,38120293241767E-03 
361	 3,35265894003288E-03 
362	 9,70446414868519E-03 
363	 3,34624966019439E-02 
364	 3,94227474144278E-02 
365	 2,80368232159908E-02 
366	 2,67026996527824E-02 
367	 0,03233020172086 
368	 4,09280374126079E-02 
369	 4,02006920415225E-02 
370	 3,17836870574753E-02 
371	 2,20273655437295E-02 
372	 5,65828366526142E-03 
373	-8,12858378055322E-03 
374	 2,71674837165412E-02 
375	 0,051530345061384 
376	 2,94832951806439E-02 
377	 2,48330916540985E-02 
378	 3,21015471872782E-02 
379	 1,31840452796069E-02 
380	 6,32532594791874E-03 
381	 2,12776842966938E-02 
382	 3,48712974260263E-02 
383	 4,23006000468505E-02 
384	 4,08758188244205E-02 
385	 2,73434781452214E-02 
386	 0,01194162347182 
387	 0,01760188160678 
388	 3,86283901809929E-02 
389	 6,33188017940578E-02 
390	 4,77515508353806E-02 
391	 2,46424486486503E-02 
392	 3,63260610192603E-02 
393	 3,68846323507564E-02 
394	 2,37315664674277E-02 
395	 1,82507911131933E-02 
396	 1,48050313178309E-02 
397	 1,15249737387823E-02 
398	 1,44310137830008E-02 
399	 2,08888912913246E-02 
400	 2,68766235167982E-02 
401	 2,44847568062612E-02 
402	 1,58205385907633E-02 
403	 1,61571195590542E-02 
404	 2,19224539838552E-02 
405	 0,029291789595985 
406	 2,96363117108018E-02 
407	 2,57929064916418E-02 
408	 0,026071903261018 
409	 2,71926977583953E-02 
410	 2,78172175665022E-02 
411	 2,64230858690783E-02 
412	 2,32020512855543E-02 
413	 0,018799199123594 
414	 1,87705473149741E-02 
415	 2,16046087830697E-02 
416	 2,09169256254458E-02 
417	 1,86073259342387E-02 
418	 1,70949401453534E-02 
419	 2,66286493685911E-02 
420	 3,50678421447934E-02 
421	 2,70713037400588E-02 
422	 2,33774386234824E-02 
423	 2,62064464703341E-02 
424	 2,46145821220263E-02 
425	 2,54574851449747E-02 
426	 3,15507070519339E-02 
427	 0,031323211439447 
428	 2,62342497715462E-02 
429	 2,12324349584315E-02 
430	 1,85567084159095E-02 
431	 1,95974453325918E-02 
432	 2,60291291701069E-02 
433	 3,06651123680931E-02 
434	 2,78013098278179E-02 
435	 2,60560626125484E-02 
436	 2,65766795373039E-02 
437	 2,82553039159872E-02 
438	 2,80738931780996E-02 
439	 2,53276464950023E-02 
440	 2,41856294094821E-02 
441	 2,42882549615586E-02 
442	 2,46844543962552E-02 
443	 2,39745030319678E-02 
444	 2,33301660561287E-02 
445	 2,84078969699423E-02 
446	 3,15293110695238E-02 
447	 2,85302688338577E-02 
448	 2,74491055610176E-02 
449	 2,78052214287154E-02 
450	 2,63943006051769E-02 
451	 0,026683124525475 
452	 2,88274999394167E-02 
453	 2,88955632907521E-02 
454	 2,79665288258396E-02 
455	 2,71832312036072E-02 
456	 2,57225364383009E-02 
457	 2,37771005328222E-02 
458	 2,20263752022348E-02 
459	 2,06077479822999E-02 
460	 2,00969904468873E-02 
461	 2,30752368188822E-02 
462	 2,68354166690382E-02 
463	 2,75982774878673E-02 
464	 2,60749054412063E-02 
465	 2,40347796980855E-02 
466	 2,71338658078009E-02 
467	 2,95138258472274E-02 
468	 2,76170139158903E-02 
469	 2,62526634264843E-02 
470	 2,61797272277115E-02 
471	 2,74956616203757E-02 
472	 2,81986927208895E-02 
473	 2,80472823798381E-02 
474	 2,99990348722764E-02 
475	 3,06416959596517E-02 
476	 0,026772902345064 
477	 2,47516726733701E-02 
478	 2,53736639627179E-02 
479	 2,71796563027415E-02 
480	 0,027529116728236 
481	 2,57618977328682E-02 
482	 2,73536311035963E-02 
483	 2,99404402314998E-02 
484	 0,029242878873544 
485	 2,96066983775331E-02 
486	 3,11638666575875E-02 
487	 2,99307379295681E-02 
488	 0,028703172030524 
489	 2,95227453983836E-02 
490	 3,01108195400278E-02 
491	 0,029863347959065 
492	 2,81372729359457E-02 
493	 2,69811898137677E-02 
494	 2,71185652001616E-02 
495	 2,77832937718492E-02 
496	 2,82415598735001E-02 
497	 2,77779615230596E-02 
498	 2,80533122763856E-02 
499	 2,90758916487311E-02 
500	 2,96448857097285E-02 
501	 3,02853878539782E-02 
502	 3,11319038545837E-02 
503	 3,10375426737198E-02 
504	 3,02643161160488E-02 
505	 2,95037711599063E-02 
506	 2,85109503052477E-02 
507	 2,77491946047541E-02 
508	 2,93166235880841E-02 
509	 3,07176720347771E-02 
510	 2,98229488138019E-02 
511	 3,00811399168811E-02 
512	 3,11992652987096E-02 
513	 3,05234544879639E-02 
514	 3,06838843580416E-02 
515	 3,23874085762762E-02 
516	 3,23525934726809E-02 
517	 3,18940583273747E-02 
518	 3,32984066231178E-02 
519	 0,033873110016113 
520	 3,31545362413804E-02 
521	 0,032006906527748 
522	 3,12886993467475E-02 
523	 3,15525033523591E-02 
524	 0,031520378860714 
525	 3,15827168958425E-02 
526	 3,33030084266017E-02 
527	 3,41477615130363E-02 
528	 3,34972341482688E-02 
529	 3,33118464282993E-02 
530	 3,34371657486907E-02 
531	 3,35204037694496E-02 
532	 3,36280343638829E-02 
533	 3,38366197592612E-02 
534	 3,44886491791258E-02 
535	 3,46465187103588E-02 
536	 3,39214765518188E-02 
537	 3,40573303491903E-02 
538	 3,46755281678596E-02 
539	 3,46673447350085E-02 
540	 3,43676043557292E-02 
541	 0,03396968202965 
542	 3,38165119127454E-02 
543	 3,42317909935642E-02 
544	 3,54164202826323E-02 
545	 3,54654026062418E-02 
546	 3,46480991618491E-02 
547	 3,49244509171905E-02 
548	 3,48877431291462E-02 
549	 3,41862459715147E-02 
550	 3,52991575083041E-02 
551	 3,68049950352663E-02 
552	 3,61335897183621E-02 
553	 3,53160275158647E-02 
554	 0,03501831736989 
555	 3,53610420945022E-02 
556	 3,59160886242867E-02 
557	 3,62969675347422E-02 
558	 3,64126064446492E-02 
559	 3,64062655010409E-02 
560	 3,67783881798727E-02 
561	 3,67083747044623E-02 
562	 3,60886162727266E-02 
563	 3,64732790712348E-02 
564	 3,68664594412369E-02 
565	 3,57907054687393E-02 
566	 3,51005428638625E-02 
567	 3,53289103268158E-02 
568	 3,66134304628887E-02 
569	 3,74158984237161E-02 
570	 3,67793833004135E-02 
571	 3,66001656756516E-02 
572	 3,70713320719263E-02 
573	 3,80320561363895E-02 
574	 3,82680142819728E-02 
575	 3,76500585010494E-02 
576	 3,81101442174504E-02 
577	 3,91654655580695E-02 
578	 4,01041036642765E-02 
579	 4,08377162235918E-02 
580	 4,13099580126113E-02 
581	 4,15649424319594E-02 
582	 4,15827762485254E-02 
583	 4,14959317793443E-02 
584	 4,22973025093572E-02 
585	 4,34328068611925E-02 
586	 0,043714418466338 
587	 4,40833145776334E-02 
588	 4,45804352509769E-02 
589	 4,40753862129951E-02 
590	 4,37324178287445E-02 
591	 4,45910878590421E-02 
592	 4,47048563522072E-02 
593	 4,41904297566766E-02 
594	 4,44256113715058E-02 
595	 4,47820121553591E-02 
596	 4,50190497330665E-02 
597	 4,54641957092041E-02 
598	 0,045905923326883 
599	 0,046013062012408 
600	 4,56729473105989E-02 
601	 4,50259448015694E-02 
602	 4,46275458304531E-02 
603	 4,46689402912576E-02 
604	 4,51985296543842E-02 
605	 4,50933475081876E-02 
606	 0,04452641090446 
607	 4,44452477567293E-02 
608	 4,41863169584557E-02 
609	 0,04376854284763 
610	 4,47822208186156E-02 
611	 0,045550817344352 
612	 4,39109953268732E-02 
613	 0,0426456870316 
614	 4,23274816577994E-02 
615	 4,22806606792698E-02 
616	 4,24379481454825E-02 
617	 4,27325441066494E-02 
618	 0,043260681140864 
619	 4,36451690901533E-02 
620	 4,30974093136144E-02 
621	 4,29606572221759E-02 
622	 4,34092901292341E-02 
623	 4,29429891705206E-02 
624	 4,21797513253295E-02 
625	 4,18684022718208E-02 
626	 4,25639215744153E-02 
627	 0,043732518613459 
628	 4,35533129761247E-02 
629	 4,29144065487289E-02 
630	 4,24791158278338E-02 
631	 4,35501070018165E-02 
632	 4,49716191062734E-02 
633	 4,46514478140094E-02 
634	 4,43131153905241E-02 
635	 4,44206814400656E-02 
636	 4,45755000013637E-02 
637	 4,51870649757166E-02 
638	 4,64961462564306E-02 
639	 0,046954090604364 
640	 4,67098588424007E-02 
641	 4,68602488230051E-02 
642	 0,047284097852725 
643	 4,78352864219966E-02 
644	 4,76853281559237E-02 
645	 4,74192374042361E-02 
646	 4,78879165241846E-02 
647	 4,82107622264224E-02 
648	 0,048135489639468 
649	 0,047525412400535 
650	 4,73260467500699E-02 
651	 4,80271663745856E-02 
652	 4,78876225170252E-02 
653	 4,70810490731515E-02 
654	 4,64760903533932E-02 
655	 4,60717733104269E-02 
656	 4,58399001041565E-02 
657	 4,53617802072424E-02 
658	 4,50632940954474E-02 
659	 4,53420629079078E-02 
660	 4,42453237609351E-02 
661	 4,23019352674133E-02 
662	 0,042265001284879 
663	 4,23345918113859E-02 
664	 4,16171230607992E-02 
665	 4,06340065307714E-02 
666	 3,96208670321056E-02 
667	 3,88087898679903E-02 
668	 3,87051475378058E-02 
669	 3,91660749869036E-02 
670	 3,90129802732489E-02 
671	 3,88491362923744E-02 
672	 3,91257194057301E-02 
673	 0,038963872950426 
674	 3,85133473114379E-02 
675	 3,84586815628132E-02 
676	 3,85675154113686E-02 
677	 3,87140155652161E-02 
678	 3,86075244568751E-02 
679	 3,84674195790709E-02 
680	 3,85823512432594E-02 
681	 3,91738292510892E-02 
682	 3,99838021680005E-02 
683	 4,00484938729728E-02 
684	 4,00279423375042E-02 
685	 4,03750343740487E-02 
686	 4,12882293732487E-02 
687	 4,24880424574661E-02 
688	 4,34175473547462E-02 
689	 4,46318055451619E-02 
690	 4,62294847388704E-02 
691	 4,78734455261844E-02 
692	 4,96015504840236E-02 
693	 5,15085864674716E-02 
694	 5,42574465963252E-02 
695	 5,77094545528559E-02 
696	 6,13331838861159E-02 
697	 6,44855105196671E-02 
698	 6,71551637693744E-02 
699	 7,12280852014896E-02 
700	 7,59637768661965E-02 
701	 8,01878853233605E-02 
702	 8,44374207352489E-02 
703	 8,87294299594692E-02 
704	 9,28238019333811E-02 
705	 9,68100899286542E-02 
706	 0,100747681011382 
707	 0,104616594997865 
708	 0,108367956980679 
709	 0,111941661922712 
710	 0,115223723787201 
711	 0,118117466569453 
712	 0,120408359376176 
713	 0,122575261296092 
714	 0,125038566148609 
715	 0,127279886444368 
716	 0,129270236321288 
717	 0,131251677622305 
718	 0,132853971663491 
719	 0,134021157818865 
720	 0,135393419828058 
721	 0,136867926394152 
722	 0,138234242460366 
723	 0,13940260048432 
724	 0,140388590617862 
725	 0,141374987760002 
726	 0,142146915046013 
727	 0,142683307395053 
728	 0,143961395571077 
729	 0,145367920502764 
730	 0,145571699156521 
731	 0,145876792176542 
732	 0,146570361618591 
733	 0,147057678559655 
734	 0,147442485323435 
735	 0,147811390516464 
736	 0,147799496530163 
737	 0,147763943152764 
738	 0,148751069345164 
739	 0,149717513497539 
740	 0,150187187449089 
741	 0,150015487516531 
742	 0,149753071346427 
743	 0,150044363415141 
744	 0,150523929893628 
745	 0,151013427573781 
746	 0,151278547915858 
747	 0,151331146609035 
748	 0,151258193522821 
749	 0,151635345190391 
750	 0,152142518837553 
751	 0,152177148205886 
752	 0,152369706607857 
753	 0,152770323073578 
754	 0,152913334284103 
755	 0,152934866477728 
756	 0,152974250845901 
757	 0,153315166119494 
758	 0,153818314148318 
759	 0,154138949588106 
760	 0,154234305952271 
761	 0,154133863359573 
762	 0,154096463183146 
763	 0,15411607074677 
764	 0,154179578094911 
765	 0,154396342716736 
766	 0,15469290556788 
767	 0,154823540336503 
768	 0,155041028095355 
769	 0,155378814750293 
770	 0,155409075733521 
771	 0,155488796576005 
772	 0,156052751251299 
773	 0,155933837683331 
774	 0,155270241007673 
775	 0,155234110731451 
776	 0,155662833154333 
777	 0,156333505437754 
778	 0,156209514672527 
779	 0,15582028828149 
780	 0,156112433857853 
781	 0,156502461517597 
782	 0,156758819598632 
783	 0,156612314323925 
784	 0,156485253918819 
785	 0,15665584255227 
786	 0,156888098442078 
787	 0,157140376757311 
788	 0,15741093990417 
789	 0,157539459996985 
790	 0,157530746226003 
791	 0,157676966516931 
792	 0,157644222774335 
793	 0,15722561616199 
794	 0,15720361565538 
795	 0,157503406737132 
796	 0,157691054300584 
797	 0,157753180458981 
798	 0,157712100565307 
799	 0,157781667423591 
800	 0,157962337233834 
801	 0,158227049910353 
802	 0,158325313790324 
803	 0,158391489831438 
804	 0,158971075835521 
805	 0,159147630164435 
806	 0,158769635380204 
807	 0,159033988050084 
808	 0,15942247217948 
809	 0,159318295578131 
810	 0,159480872389458 
811	 0,159768603033671 
812	 0,159286427732062 
813	 0,159202771579818 
814	 0,159808436002673 
815	 0,159600411149417 
816	 0,1592085860182 
817	 0,159516103106549 
818	 0,159885660132316 
819	 0,160170585482437 
820	 0,160404248819289 
821	 0,160493852860817 
822	 0,160408635655819 
823	 0,16021889367589 
824	 0,160184606147692 
825	 0,160609230184477 
826	 0,161110602309308 
827	 0,161430684371667 
828	 0,161102290449259 
829	 0,160849318118658 
830	 0,160990867455493 
831	 0,160770660655074 
832	 0,160659201861038 
833	 0,16138240454598 
834	 0,161283492224897 
835	 0,160546376948047 
836	 0,161239027394772 
837	 0,161727155981017 
838	 0,161287644463626 
839	 0,161515515793164 
840	 0,162008466452289 
841	 0,161965432618082 
842	 0,161669909381448 
843	 0,161328489121115 
844	 0,161369934866424 
845	 0,161472867806722 
846	 0,161546829580621 
847	 0,162396206465183 
848	 0,162986739945976 
849	 0,161800006705117 
850	 0,161368125878372 
851	 0,161963264974234 
852	 0,162254454899758 
853	 0,162116535684189 
854	 0,161554371487555 
855	 0,161269336462597 
856	 0,161318193505927 
857	 0,161643007852847 
858	 0,161992656905203 
859	 0,162221699615686 
860	 0,162165831858169 
861	 0,16204897551526 
862	 0,162036927403659 
863	 0,162302929477091 
864	 0,162690787494789 
865	 0,162968714178309 
866	 0,162930619877923 
867	 0,162652326317818 
868	 0,162505512466641 
869	 0,162496383519247 
870	 0,162598914903801 
871	 0,162451418404158 
872	 0,162658618857831 
873	 0,163904197366373 
874	 0,163806301604548 
875	 0,162646851939421 
876	 0,162766577632663 
877	 0,163278314562486 
878	 0,163711962456692 
879	 0,163480606473401 
880	 0,163109017339299 
881	 0,163207921344021 
882	 0,163342676760061 
883	 0,163373943891892 
884	 0,16305826074275 
885	 0,163349436574206 
886	 0,164303009994091 
887	 0,16427165155501 
888	 0,163953687992575 
889	 0,164085791445241 
890	 0,164266094916933 
891	 0,164432276889179 
892	 0,164613802755322 
893	 0,16456272846232 
894	 0,164235384849119 
895	 0,163751883015502 
896	 0,163673303586877 
897	 0,164345791373205 
898	 0,164749244186805 
899	 0,164814661439119 
900	 0,164754445528023 
901	 0,164353914722342 
902	 0,163836604362418 
903	 0,164184120715762 
904	 0,164433267762419 
905	 0,164062932097146 
906	 0,164016706106007 
907	 0,16426767266484 
908	 0,164606864669498 
909	 0,164970468268725 
910	 0,165345321280822 
911	 0,165818693167667 
912	 0,166200202200487 
913	 0,166347668608445 
914	 0,166017596992902 
915	 0,165780228558915 
916	 0,166220338397533 
917	 0,165936153101174 
918	 0,165176165263353 
919	 0,165264992040481 
920	 0,165540294571165 
921	 0,165776027388269 
922	 0,166056809981264 
923	 0,165987576049991 
924	 0,165312562868686 
925	 0,164833663254051 
926	 0,164592893277347 
927	 0,164385538233162 
928	 0,164420789357526 
929	 0,164559497513799 
930	 0,164042362381869 
931	 0,163904979817199 
932	 0,164691654996368 
933	 0,165736391831561 
934	 0,166149505306472 
935	 0,165001077485937 
936	 0,164580551432656 
937	 0,165140014602027 
938	 0,165938927696869 
939	 0,165915070252155 
940	 0,164743724600616 
941	 0,163198869768703 
942	 0,162714568059862 
943	 0,164232850705319 
944	 0,164285184421652 
945	 0,163450588044684 
946	 0,163927001718168 
947	 0,164384804411807 
948	 0,164491745192439 
949	 0,164548498772259 
950	 0,163908594796272 
951	 0,162433146204111 
952	 0,161517904714523 
953	 0,161557803095595 
954	 0,162712498516302 
955	 0,162792804880301 
956	 0,161854081872551 
957	 0,161342564184859 
958	 0,161047665761448 
959	 0,161130001623952 
960	 0,162537901457776 
961	 0,162811299129676 
962	 0,160599316792034 
963	 0,161329069448329 
964	 0,163081044398046 
965	 0,161835360249675 
966	 0,159904012108091 
967	 0,158761237373941 
968	 0,161361400630756 
969	 0,162339625665937 
970	 0,160004201711883 
971	 0,158969071039047 
972	 0,158997909431831 
973	 0,159624305062575 
974	 0,161457972920621 
975	 0,162813363458162 
976	 0,160675796681385 
977	 0,160026277174676 
978	 0,16117455210734 
979	 0,159831170114561 
980	 0,159368423276962 
981	 0,161067931202306 
982	 0,162140104935061 
983	 0,162112644992371 
984	 0,160887762146978 
985	 0,160101448407392 
986	 0,160384924755422 
987	 0,162233344051526 
988	 0,163851036743167 
989	 0,164590708873808 
990	 0,164551801604584 
991	 0,164345263328705 
992	 0,164189326256799 
993	 0,162988061310052 
994	 0,162183428760353 
995	 0,163178054902648 
996	 0,163139540449108 
997	 0,162843586499088 
998	 0,164876558404014 
999	 0,164765644428323 
1000	 0,162961700132858 
1001	 0,166094128181876 
1002	 0,167705342433052 
1003	 0,165411217736757 
1004	 0,16583101229722 
1005	 0,166628304970517 
1006	 0,165331054837107 
1007	 0,166002628719918 
1008	 0,166942467932561 
1009	 0,164011265183822 
1010	 0,163299836644347 
1011	 0,165208880303407 
1012	 0,165474223201892 
1013	 0,164578814574859 
1014	 0,163438742235388 
1015	 0,165903394445777 
1016	 0,168617949949929 
1017	 0,168890508556263 
1018	 0,171227314848083 
1019	 0,172600224692587 
1020	 0,167947556839954 
1021	 0,165469228350912 
1022	 0,166068130994571 
1023	 0,166357958155578 
1024	 0,165015880880748 
1025	 0,163004286469775 
1026	 0,167542413398386 
1027	 0,171418226768532 
1028	 0,170266102357459 
1029	 0,169708853535767 
1030	 0,168098790390571 
1031	 0,163494253227122 
1032	 0,164249000885553 
1033	 0,169810931187143 
1034	 0,175741199729997 
1035	 0,174797912741859 
1036	 0,16773275414036 
1037	 0,165508374350804 
1038	 0,164532598242103 
1039	 0,164512827944439 
1040	 0,172427085932172 
1041	 0,175592290541454 
1042	 0,165868605297186 
1043	 0,168111415453723 
1044	 0,176873335728508 
1045	 0,179854385929587 
1046	 0,174480846132545 
1047	 0,166485656754629 
1048	 0,171690216071328 
1049	 0,175092197511061 
1050	 0,173451592351912 
1051	 0,172066285188069 
1052	 0,172503897736273 
1053	 0,175148209545466 
1054	 0,177148899145139 
1055	 0,177609578212938 
1056	 0,176760528503919 
1057	 0,183465540399145 
1058	 0,188157040095516 
1059	 0,177434928166016 
1060	 0,16667803974077 
1061	 0,163980538374536 
1062	 0,179546547973143 
1063	 0,182880758785149 
1064	 0,170095104837037 
1065	 0,163331777824008 
1066	 0,163625924980862 
1067	 0,169570743020613 
1068	 0,168925281425781 
1069	 0,165953306652146 
1070	 0,164127267277007 
1071	 0,160214603279436 
1072	 0,160874161194988 
1073	 0,172942303224982 
1074	 0,179661743400199 
1075	 0,181046668578262 
