Wavelength	PENFOUL00513.asd
325	 0,542026604163395 
326	 0,498318059013614 
327	 0,615631096420738 
328	 0,83046722247423 
329	 0,657814191453168 
330	 0,414649079992029 
331	 0,444560475549019 
332	 0,486247938568353 
333	 0,537537048717792 
334	 0,594835580441022 
335	 0,596683333992807 
336	 0,536184289378431 
337	 0,448139856732323 
338	 0,352505701353276 
339	 0,293009949911089 
340	 0,334253807655403 
341	 0,409299605125135 
342	 0,397485766124034 
343	 0,373109428566191 
344	 0,362485092850247 
345	 0,380309807841031 
346	 0,387813151499782 
347	 0,353544179567544 
348	 0,35012298181482 
349	 0,370304522725341 
350	 0,376276759669514 
351	 0,361227008858208 
352	 0,327764851744209 
353	 0,322565905154748 
354	 0,345898529400781 
355	 0,391670303279226 
356	 0,398014008222339 
357	 0,365985563667645 
358	 0,344202708561679 
359	 0,336943721287064 
360	 0,343115834325699 
361	 0,348343308907162 
362	 0,35390123741733 
363	 0,363597015058402 
364	 0,372918596769643 
365	 0,377443410804578 
366	 0,360143911928199 
367	 0,351668208969512 
368	 0,367112214330736 
369	 0,371228373702422 
370	 0,367995293860291 
371	 0,373201087187985 
372	 0,36696515966468 
373	 0,35194911123467 
374	 0,367616746070105 
375	 0,373693164155335 
376	 0,345831108450546 
377	 0,350408477526472 
378	 0,3748386917008 
379	 0,372102766523253 
380	 0,370790171184477 
381	 0,375901424738343 
382	 0,366687500948044 
383	 0,361813159586034 
384	 0,377084255078212 
385	 0,377132890039815 
386	 0,364270375199436 
387	 0,360955201458412 
388	 0,366493462619698 
389	 0,377640581180347 
390	 0,378400389872456 
391	 0,372882718737523 
392	 0,367666136393766 
393	 0,370809077465642 
394	 0,376991847046547 
395	 0,364063194062509 
396	 0,354995674825596 
397	 0,360800565317622 
398	 0,365073569538301 
399	 0,370237566161317 
400	 0,383674346815569 
401	 0,380412194554991 
402	 0,362324656340031 
403	 0,359885627247132 
404	 0,367227774115884 
405	 0,377870100454089 
406	 0,377849372637211 
407	 0,371306626652991 
408	 0,37139610414668 
409	 0,369466266040897 
410	 0,365268460254426 
411	 0,368148830900038 
412	 0,371668425594506 
413	 0,369533085338917 
414	 0,363820126040326 
415	 0,359476099138888 
416	 0,369325990402224 
417	 0,373650260317594 
418	 0,366743617399854 
419	 0,366478000043035 
420	 0,368507517138227 
421	 0,365574928912596 
422	 0,365130455564826 
423	 0,367800279230088 
424	 0,370180107463749 
425	 0,370525901676714 
426	 0,368068826988958 
427	 0,365152793424898 
428	 0,363469072100999 
429	 0,36541111216915 
430	 0,366033316146523 
431	 0,364861302318184 
432	 0,367162321656973 
433	 0,36936887339908 
434	 0,368342770636607 
435	 0,3658602096346 
436	 0,364457403802683 
437	 0,370137109985898 
438	 0,372910355542618 
439	 0,369894194350673 
440	 0,370876476909031 
441	 0,372399724918038 
442	 0,369079554396824 
443	 0,369026504874428 
444	 0,372039259500775 
445	 0,370694882150622 
446	 0,369037140475278 
447	 0,369728735110005 
448	 0,372855398937404 
449	 0,37646391589245 
450	 0,377097744403656 
451	 0,37498628460713 
452	 0,371933402412544 
453	 0,375550965366526 
454	 0,379570232314469 
455	 0,377992829493351 
456	 0,373963769904453 
457	 0,370569081939943 
458	 0,374342803243854 
459	 0,377993950492751 
460	 0,378294484810234 
461	 0,377052459946496 
462	 0,376194820820987 
463	 0,378007116251552 
464	 0,379033814101578 
465	 0,378821216756822 
466	 0,379227174962042 
467	 0,378930148546509 
468	 0,377406189287214 
469	 0,378095406964743 
470	 0,3798602230546 
471	 0,379408128744612 
472	 0,379608018523399 
473	 0,380867441365959 
474	 0,380941039744161 
475	 0,379862314702109 
476	 0,377960489431255 
477	 0,37909781490547 
478	 0,382071808274634 
479	 0,381395005633918 
480	 0,380297451655244 
481	 0,380096989164635 
482	 0,378810988020128 
483	 0,37812069001137 
484	 0,380724752489892 
485	 0,382336395821116 
486	 0,381948111007582 
487	 0,380415035173353 
488	 0,380487797140452 
489	 0,383687962786821 
490	 0,382747238148874 
491	 0,379304204592363 
492	 0,379908820634726 
493	 0,379458949228356 
494	 0,37721263974351 
495	 0,378502915480853 
496	 0,380963701122284 
497	 0,381540713152834 
498	 0,380990776518832 
499	 0,380199111717254 
500	 0,38157357394167 
501	 0,382206925034927 
502	 0,380777503967645 
503	 0,38078914033516 
504	 0,38169180798455 
505	 0,381683771765918 
506	 0,382124379814395 
507	 0,383218024613932 
508	 0,384408426211282 
509	 0,38453254382941 
510	 0,382808711959872 
511	 0,383195264927415 
512	 0,385303786662882 
513	 0,386095225489318 
514	 0,386843176906249 
515	 0,387838885182381 
516	 0,387906069717501 
517	 0,387124875659844 
518	 0,385714870764625 
519	 0,385428504191362 
520	 0,386376706891759 
521	 0,387198638627299 
522	 0,387304724411242 
523	 0,386404976773977 
524	 0,385976889678806 
525	 0,386261253501376 
526	 0,387488472062409 
527	 0,387230690356956 
528	 0,385254413842125 
529	 0,385409122838023 
530	 0,386262012595813 
531	 0,38587097857948 
532	 0,385331313970626 
533	 0,38509742676207 
534	 0,385956786954994 
535	 0,386279640303928 
536	 0,385281576558097 
537	 0,38514419345231 
538	 0,38555461967854 
539	 0,3853390286671 
540	 0,385548016943264 
541	 0,386182323655784 
542	 0,385767881803918 
543	 0,385305651519463 
544	 0,385794849932164 
545	 0,386045658992626 
546	 0,386047222095442 
547	 0,386632124123864 
548	 0,386357557127451 
549	 0,384915674087496 
550	 0,385288612567852 
551	 0,386723088480237 
552	 0,387582455799374 
553	 0,3877177993325 
554	 0,387325005861881 
555	 0,387711146820566 
556	 0,387876789386116 
557	 0,387061769566965 
558	 0,386833095866533 
559	 0,387162156727173 
560	 0,387328708518019 
561	 0,387075852154618 
562	 0,386353518017937 
563	 0,385728982040737 
564	 0,385407737493516 
565	 0,385570118239315 
566	 0,385503245480585 
567	 0,385363495551501 
568	 0,386475318734563 
569	 0,387370908950065 
570	 0,387195307262469 
571	 0,388260158044667 
572	 0,390074928117357 
573	 0,390817887036905 
574	 0,391471167441576 
575	 0,392384488289211 
576	 0,393672164040979 
577	 0,394823584203147 
578	 0,395297114038376 
579	 0,39662696967009 
580	 0,39854770477348 
581	 0,399022545052943 
582	 0,39969732037526 
583	 0,401425594132242 
584	 0,403097554843352 
585	 0,404281911868116 
586	 0,404447934131691 
587	 0,405269483237952 
588	 0,406906098081852 
589	 0,407409365645672 
590	 0,408046518259206 
591	 0,409934198801376 
592	 0,410207425422324 
593	 0,409364238505255 
594	 0,410375192434296 
595	 0,411073845110468 
596	 0,410683907843228 
597	 0,411052002304617 
598	 0,411637705327019 
599	 0,411360585166237 
600	 0,410877764861599 
601	 0,410459150619428 
602	 0,410386263859852 
603	 0,41040966156805 
604	 0,410269250426321 
605	 0,409376708876391 
606	 0,408221119142478 
607	 0,408299644952882 
608	 0,4079510920072 
609	 0,406858996750587 
610	 0,407112145265241 
611	 0,407449367530799 
612	 0,406140446340364 
613	 0,404909194320057 
614	 0,404255916104327 
615	 0,404293484447918 
616	 0,404404769773482 
617	 0,404177893088262 
618	 0,40387043402748 
619	 0,403628679362336 
620	 0,403661111031785 
621	 0,403807694599006 
622	 0,403964908427784 
623	 0,404014377604784 
624	 0,403749326913105 
625	 0,403032275884208 
626	 0,403502667442849 
627	 0,404910472031178 
628	 0,40550514911445 
629	 0,405875064078171 
630	 0,406289427425594 
631	 0,406650797181918 
632	 0,406973951073145 
633	 0,407259607972519 
634	 0,40791785625319 
635	 0,408961596477772 
636	 0,4097997448968 
637	 0,410973855924673 
638	 0,412863435421908 
639	 0,414125033296556 
640	 0,414674154919443 
641	 0,414869586176272 
642	 0,415518664036416 
643	 0,416818203128663 
644	 0,41749403053661 
645	 0,41793007029797 
646	 0,418782093929526 
647	 0,419165718621654 
648	 0,41890239363635 
649	 0,418154983506788 
650	 0,417490425217986 
651	 0,417231926038879 
652	 0,416478086486388 
653	 0,415431015818442 
654	 0,414756563565921 
655	 0,414173841513855 
656	 0,413513619331661 
657	 0,412427307636636 
658	 0,411164347383589 
659	 0,409989393659634 
660	 0,408153494126791 
661	 0,406042632448047 
662	 0,405174555951386 
663	 0,40446887145269 
664	 0,403348914416485 
665	 0,401967093888643 
666	 0,400451454715461 
667	 0,398929216652321 
668	 0,398197030277797 
669	 0,398212621998716 
670	 0,397817436589521 
671	 0,397337583558996 
672	 0,397045627368955 
673	 0,396722196717557 
674	 0,396396011106591 
675	 0,396147312627986 
676	 0,39628350611181 
677	 0,396788289013403 
678	 0,396867411390416 
679	 0,396817074222698 
680	 0,397066990475431 
681	 0,397557374612055 
682	 0,398272924508501 
683	 0,399156904291067 
684	 0,400173146947595 
685	 0,401354038455 
686	 0,40302258343691 
687	 0,405270806696868 
688	 0,40815998956552 
689	 0,411527337653819 
690	 0,415413832383136 
691	 0,420127559849232 
692	 0,425709463943879 
693	 0,432178601898409 
694	 0,439480268357405 
695	 0,447290160570429 
696	 0,454925154324238 
697	 0,462965359241066 
698	 0,471709314322094 
699	 0,481525760769547 
700	 0,491606214150783 
701	 0,500901531799119 
702	 0,510083607811704 
703	 0,519209657710718 
704	 0,528042177393284 
705	 0,536558060712711 
706	 0,544727100898045 
707	 0,552457709674635 
708	 0,559706100009634 
709	 0,566426885130695 
710	 0,572652665630133 
711	 0,578472826259533 
712	 0,584226057472833 
713	 0,589571178888579 
714	 0,594173016694421 
715	 0,598316063297468 
716	 0,602218202231661 
717	 0,606310865102753 
718	 0,609913363466509 
719	 0,612829313082473 
720	 0,615823361512616 
721	 0,618665735974008 
722	 0,620981892933869 
723	 0,623179586090437 
724	 0,625319213536576 
725	 0,627215845191405 
726	 0,629023736413931 
727	 0,630815423659849 
728	 0,632335833988318 
729	 0,633583858869994 
730	 0,634626359293171 
731	 0,635521550848956 
732	 0,636332499983924 
733	 0,637131803372239 
734	 0,6380576238701 
735	 0,639191051537972 
736	 0,640087592438719 
737	 0,640684737019997 
738	 0,641058261672056 
739	 0,641333330966706 
740	 0,641624188961375 
741	 0,642139444649914 
742	 0,642706806125079 
743	 0,643104488631589 
744	 0,643273835399237 
745	 0,643374269969779 
746	 0,644017532479563 
747	 0,644228270891759 
748	 0,643662945271524 
749	 0,643925016084719 
750	 0,644525247042606 
751	 0,644420815890628 
752	 0,644268825772377 
753	 0,644255568664037 
754	 0,644404140132764 
755	 0,644541661919415 
756	 0,64451809773966 
757	 0,644152259580914 
758	 0,643808155950674 
759	 0,64427726869547 
760	 0,644664836066912 
761	 0,644734160256983 
762	 0,644999938892121 
763	 0,644949043780355 
764	 0,644147194991322 
765	 0,643694523127203 
766	 0,643764788202712 
767	 0,64425009283353 
768	 0,644499160454745 
769	 0,644290978185178 
770	 0,644219893991961 
771	 0,644240510489913 
772	 0,644236390759877 
773	 0,644116266465201 
774	 0,643874118780487 
775	 0,643508154206762 
776	 0,643439331937474 
777	 0,643795233905618 
778	 0,643759574037082 
779	 0,643546939453889 
780	 0,643607200716253 
781	 0,643827490337018 
782	 0,644069117636021 
783	 0,643921850990398 
784	 0,643834541469919 
785	 0,644048635856465 
786	 0,643933479750339 
787	 0,64358858046904 
788	 0,643334898444314 
789	 0,64323975569958 
790	 0,643294157965888 
791	 0,643366937377535 
792	 0,643164029405431 
793	 0,642523585808355 
794	 0,642214192466818 
795	 0,642368874721874 
796	 0,643012338285344 
797	 0,643381887284956 
798	 0,643244581845028 
799	 0,643086799969391 
800	 0,642749891626895 
801	 0,642129026828772 
802	 0,64214067159707 
803	 0,642612678904508 
804	 0,642666930140406 
805	 0,642653766061479 
806	 0,642690774947493 
807	 0,642812249721199 
808	 0,642982039281163 
809	 0,643146102894337 
810	 0,643139392128548 
811	 0,64292841993165 
812	 0,642458573524789 
813	 0,642341818749763 
814	 0,642705596250475 
815	 0,642510032448955 
816	 0,642184889759791 
817	 0,642340260246205 
818	 0,642636473581428 
819	 0,643012955074414 
820	 0,643579765770892 
821	 0,6438909960584 
822	 0,643728652048492 
823	 0,643252011763842 
824	 0,642903507617997 
825	 0,643203145917774 
826	 0,643680780851511 
827	 0,644044858496916 
828	 0,643836149333979 
829	 0,643425666086082 
830	 0,643118530514309 
831	 0,643463630032704 
832	 0,643937286572947 
833	 0,643754621072089 
834	 0,643494462902084 
835	 0,643301840776189 
836	 0,643104632459267 
837	 0,643180580465954 
838	 0,643605761161464 
839	 0,643827165060849 
840	 0,64377044959178 
841	 0,643439281680797 
842	 0,643356590017482 
843	 0,643519967076131 
844	 0,643388034640479 
845	 0,643327561694196 
846	 0,643503938514801 
847	 0,643618513568934 
848	 0,643563608474922 
849	 0,643244932451174 
850	 0,643215600989409 
851	 0,643445610514294 
852	 0,643341724876571 
853	 0,643141658365385 
854	 0,642974729947377 
855	 0,642738920091364 
856	 0,642744631880287 
857	 0,643403250948211 
858	 0,643524702423355 
859	 0,64310851849127 
860	 0,643252727177139 
861	 0,643003308170913 
862	 0,642174637384348 
863	 0,642856313095714 
864	 0,644062390611065 
865	 0,644243749821375 
866	 0,644101384235939 
867	 0,643908899557318 
868	 0,644103399102225 
869	 0,64388960136554 
870	 0,643098154450922 
871	 0,643133310293496 
872	 0,643547507017503 
873	 0,643642693774014 
874	 0,643650388603199 
875	 0,64365122968496 
876	 0,643767735496429 
877	 0,64393751803662 
878	 0,64407871253346 
879	 0,643926129842778 
880	 0,643686007727398 
881	 0,643597530467314 
882	 0,643390639595746 
883	 0,643208099506232 
884	 0,643554883190967 
885	 0,643916490339374 
886	 0,644074683256124 
887	 0,64400459306954 
888	 0,643953854630708 
889	 0,644129682472478 
890	 0,644143877734764 
891	 0,643830852462205 
892	 0,642860189289052 
893	 0,643082602390622 
894	 0,64445970240346 
895	 0,643842306160492 
896	 0,643272337489402 
897	 0,644167433788265 
898	 0,643100837758547 
899	 0,641658501456595 
900	 0,643579136411061 
901	 0,644295872970526 
902	 0,643252496526305 
903	 0,643723521648106 
904	 0,643866765081899 
905	 0,642752434936036 
906	 0,642434157656511 
907	 0,642785724788498 
908	 0,643249429656177 
909	 0,643883637371934 
910	 0,644432200843631 
911	 0,644202901993576 
912	 0,643872799782849 
913	 0,643828881085544 
914	 0,644131492159222 
915	 0,64472796943415 
916	 0,645463726680587 
917	 0,644761689009147 
918	 0,643392327286959 
919	 0,644223945545169 
920	 0,644242537390835 
921	 0,6430468464546 
922	 0,64403638367882 
923	 0,644826567481536 
924	 0,643553891055158 
925	 0,643375102447382 
926	 0,644142507057997 
927	 0,644725177208822 
928	 0,644196537205512 
929	 0,642827794886761 
930	 0,642625100333489 
931	 0,643366531410584 
932	 0,644654840798134 
933	 0,645039491457107 
934	 0,644240340061517 
935	 0,642249662075482 
936	 0,641423010720524 
937	 0,641882352583048 
938	 0,642303984413338 
939	 0,642413501202102 
940	 0,642100386401438 
941	 0,641823362837538 
942	 0,641614644853464 
943	 0,641498697653728 
944	 0,641685779767055 
945	 0,641834768862262 
946	 0,641201189826612 
947	 0,641964980926937 
948	 0,643793304106423 
949	 0,643247453612087 
950	 0,641987069324632 
951	 0,640907706086989 
952	 0,638800769181203 
953	 0,637700002317951 
954	 0,639934098598225 
955	 0,641158757105875 
956	 0,640494670164672 
957	 0,638098786608406 
958	 0,637186281499212 
959	 0,638528663998873 
960	 0,639682134326004 
961	 0,639467713220184 
962	 0,637514542903739 
963	 0,638232075027688 
964	 0,639682696086916 
965	 0,638018339999705 
966	 0,637241217583695 
967	 0,637828700588145 
968	 0,638148962224033 
969	 0,637952144844048 
970	 0,637072493487766 
971	 0,63552146509692 
972	 0,634561342823299 
973	 0,63524651024883 
974	 0,636348240208861 
975	 0,637393264106723 
976	 0,638057063394474 
977	 0,636990537246079 
978	 0,635207016204604 
979	 0,637342611237284 
980	 0,639763867071022 
981	 0,640548800739951 
982	 0,640370205168251 
983	 0,639900158685079 
984	 0,639768081182286 
985	 0,639296006380328 
986	 0,638846709761339 
987	 0,639348021450294 
988	 0,638933064102561 
989	 0,63768388532784 
990	 0,637881279523032 
991	 0,638297302114496 
992	 0,638457568051456 
993	 0,639423347184122 
994	 0,641372685186374 
995	 0,644102439799197 
996	 0,644213484383655 
997	 0,642527764737912 
998	 0,641832727666546 
999	 0,642299380790732 
1000	 0,643924220248415 
1001	 0,646454350954903 
1002	 0,646849617497007 
1003	 0,644475687778118 
1004	 0,645466361453469 
1005	 0,647084486944052 
1006	 0,646427714453301 
1007	 0,647144547065009 
1008	 0,647809938719465 
1009	 0,644921323217603 
1010	 0,644252357687533 
1011	 0,645826821208444 
1012	 0,644048259624605 
1013	 0,643358739934442 
1014	 0,645377548275776 
1015	 0,648240395513901 
1016	 0,648282441927763 
1017	 0,643776215460834 
1018	 0,647149964124185 
1019	 0,653157928534437 
1020	 0,651564459354213 
1021	 0,651341612476473 
1022	 0,652154356780149 
1023	 0,646513999894899 
1024	 0,645966518355726 
1025	 0,652137775589704 
1026	 0,653237822775024 
1027	 0,652420723012788 
1028	 0,652133407118394 
1029	 0,65312892157068 
1030	 0,653327225212291 
1031	 0,650631367978558 
1032	 0,652459955125882 
1033	 0,656283981654832 
1034	 0,653915944073797 
1035	 0,6556041723582 
1036	 0,661198507507995 
1037	 0,660234579853883 
1038	 0,655139986123278 
1039	 0,649320306509408 
1040	 0,653197187089829 
1041	 0,656644149047088 
1042	 0,652468866211876 
1043	 0,657302348516054 
1044	 0,666151437073976 
1045	 0,669049076270159 
1046	 0,66115916693899 
1047	 0,648739706024313 
1048	 0,649952029329696 
1049	 0,650792915491435 
1050	 0,649695665298139 
1051	 0,657177866163414 
1052	 0,664932843825826 
1053	 0,667183882291728 
1054	 0,658730112246067 
1055	 0,650156278324656 
1056	 0,65118272170656 
1057	 0,655540906829088 
1058	 0,663398546603816 
1059	 0,675478338949982 
1060	 0,671328480184569 
1061	 0,658058908590874 
1062	 0,663030416728444 
1063	 0,66811098599013 
1064	 0,668994547613733 
1065	 0,669557700232975 
1066	 0,670124769489973 
1067	 0,67009351168541 
1068	 0,665359418743227 
1069	 0,659741790965207 
1070	 0,656669271178861 
1071	 0,660555241364394 
1072	 0,663023884242443 
1073	 0,65490244294692 
1074	 0,663804946733875 
1075	 0,678149761866463 
