Wavelength	PENFOUL00530.asd
325	-1,00701953629982E-02 
326	 0,139938814430259 
327	 0,174835659870684 
328	 2,14324818945426E-02 
329	 3,67061446466313E-02 
330	 0,108246425239785 
331	 0,108127257972161 
332	 7,00808041846571E-02 
333	 9,24889729903261E-03 
334	 2,45114991266347E-02 
335	 2,01007536741354E-02 
336	-1,87773170010627E-02 
337	-1,94871200880295E-02 
338	 2,09667025533573E-02 
339	 0,085375123864855 
340	 0,119475464779469 
341	 0,11823316839024 
342	 7,04758162557588E-02 
343	 4,05757551155098E-02 
344	 5,01131160466305E-02 
345	 7,27629628297393E-02 
346	 6,23927685682275E-02 
347	-7,39966864005234E-03 
348	 3,45489896412039E-03 
349	 6,43600611470709E-02 
350	 5,52503544417023E-02 
351	 2,30159348579889E-02 
352	-7,67690104383312E-03 
353	 1,56648686524148E-02 
354	 5,17413418377636E-02 
355	 6,04433529853024E-02 
356	 0,057449954631507 
357	 4,85544367734963E-02 
358	 4,56009853035781E-02 
359	 3,80014257249799E-02 
360	 2,18274557981161E-02 
361	 5,5498715535851E-03 
362	 5,90036654963886E-03 
363	 4,34806344226424E-02 
364	 5,01104280153118E-02 
365	 2,85613595895653E-02 
366	 4,48678811209545E-02 
367	 5,78909120105076E-02 
368	 4,51992368323845E-02 
369	 3,89728126544736E-02 
370	 3,83925813264988E-02 
371	 3,61466774559491E-02 
372	 1,75015748413045E-02 
373	-8,34364123126514E-03 
374	 2,01012681534673E-02 
375	 5,16991888900761E-02 
376	 5,31439910983589E-02 
377	 2,93880188729912E-02 
378	 1,57284689030038E-03 
379	 1,43385980885504E-03 
380	 4,18656777721709E-03 
381	 6,36478953762596E-03 
382	 3,17671580419613E-02 
383	 5,31730705700745E-02 
384	 4,69980575732041E-02 
385	 2,97519691509104E-02 
386	 1,20760627639438E-02 
387	 8,31776550864266E-03 
388	 1,60398074378537E-02 
389	 2,99362320104471E-02 
390	 2,99381105646484E-02 
391	 2,56551898536834E-02 
392	 3,01492102721436E-02 
393	 3,14469182191565E-02 
394	 0,029546591572094 
395	 3,33317321263471E-02 
396	 0,029441620902727 
397	 0,01404584750288 
398	 1,10614932000241E-02 
399	 1,71294972127698E-02 
400	 2,40204032437956E-02 
401	 0,015468219387336 
402	-2,1508408075712E-03 
403	 0,012645535840304 
404	 0,028638643837244 
405	 2,58406916719066E-02 
406	 2,06711575088295E-02 
407	 1,80061542013048E-02 
408	 2,36852728208009E-02 
409	 2,60880592990881E-02 
410	 2,33248836881089E-02 
411	 2,40455517955224E-02 
412	 0,024988871508329 
413	 2,29154819618357E-02 
414	 2,20578525414102E-02 
415	 2,17526413921691E-02 
416	 1,79441883477758E-02 
417	 1,54827749325637E-02 
418	 1,69601158571706E-02 
419	 2,57639944335368E-02 
420	 3,25713635030568E-02 
421	 2,61905502983252E-02 
422	 2,39510077308714E-02 
423	 2,64170730376862E-02 
424	 0,020458065871203 
425	 1,49420253021445E-02 
426	 1,53171055994081E-02 
427	 2,12297558712576E-02 
428	 2,62741027929235E-02 
429	 1,91610326084879E-02 
430	 1,37393002336093E-02 
431	 1,46314988701467E-02 
432	 2,20043415795282E-02 
433	 0,02789460595593 
434	 2,56846908439498E-02 
435	 1,87180085849243E-02 
436	 1,27722821313383E-02 
437	 2,11530397711865E-02 
438	 2,54785548319406E-02 
439	 1,99270696381602E-02 
440	 1,83890713567835E-02 
441	 1,97074045222035E-02 
442	 2,08469763104767E-02 
443	 2,13393868818194E-02 
444	 2,10702709696127E-02 
445	 2,05304407836987E-02 
446	 2,00766629975766E-02 
447	 1,98707683312245E-02 
448	 1,90370640729831E-02 
449	 1,81506445214135E-02 
450	 1,84712636474451E-02 
451	 1,91754517165791E-02 
452	 2,00078447809861E-02 
453	 2,10925511702854E-02 
454	 2,22218565736779E-02 
455	 2,30370380951021E-02 
456	 2,08955008226361E-02 
457	 1,68181249847844E-02 
458	 1,43669949109696E-02 
459	 1,38692671267458E-02 
460	 1,54557854877888E-02 
461	 1,81144836144471E-02 
462	 2,04533631424314E-02 
463	 2,08941640566462E-02 
464	 1,98696786035667E-02 
465	 0,018355289408703 
466	 1,93529457366731E-02 
467	 1,95489549863874E-02 
468	 1,72445046547502E-02 
469	 1,80521246850376E-02 
470	 2,05382356337871E-02 
471	 2,02728049093361E-02 
472	 0,020213324951381 
473	 2,10533683810165E-02 
474	 2,20866966191375E-02 
475	 2,13387009908881E-02 
476	 1,72147885584525E-02 
477	 1,63953755711727E-02 
478	 1,83125175945362E-02 
479	 1,72471221462876E-02 
480	 1,64852964976778E-02 
481	 1,75070876556007E-02 
482	 1,99430097632936E-02 
483	 2,15988757697426E-02 
484	 1,94018132282305E-02 
485	 1,85775721639408E-02 
486	 1,99068857399884E-02 
487	 2,05590331743802E-02 
488	 2,03229050501333E-02 
489	 1,92996054556382E-02 
490	 2,03408948611759E-02 
491	 2,21959555841022E-02 
492	 2,11161709540385E-02 
493	 1,92983885332259E-02 
494	 1,76261710688264E-02 
495	 1,62574273828438E-02 
496	 1,58055581907858E-02 
497	 1,68679259025627E-02 
498	 1,86249093808072E-02 
499	 2,00533301327196E-02 
500	 0,018783912502646 
501	 1,82875983262328E-02 
502	 2,01304565259802E-02 
503	 1,99487830364584E-02 
504	 0,018393016166334 
505	 1,75549576801875E-02 
506	 1,65246242904809E-02 
507	 1,58437984322224E-02 
508	 1,88956837847256E-02 
509	 2,10106642272808E-02 
510	 1,82647417587438E-02 
511	 1,74921837617334E-02 
512	 1,86751088034115E-02 
513	 1,80936853734192E-02 
514	 1,80340593254912E-02 
515	 1,90936172268491E-02 
516	 1,87459825111064E-02 
517	 1,78774154168662E-02 
518	 1,80219320360069E-02 
519	 1,88549682121238E-02 
520	 1,98133461566706E-02 
521	 1,92207685430703E-02 
522	 0,018346991145002 
523	 1,81829029996569E-02 
524	 1,86986903192762E-02 
525	 1,94055928997426E-02 
526	 1,92326806627731E-02 
527	 1,90169117822493E-02 
528	 1,90240871988101E-02 
529	 1,91399739195637E-02 
530	 1,89171590847058E-02 
531	 1,78832473731642E-02 
532	 1,78019719620426E-02 
533	 1,86207697082892E-02 
534	 1,88685028254638E-02 
535	 1,88211681344926E-02 
536	 1,86937690446683E-02 
537	 1,90298667808078E-02 
538	 1,94330320001574E-02 
539	 1,90265901032843E-02 
540	 0,018698230065531 
541	 1,85829456193668E-02 
542	 1,77968061011662E-02 
543	 1,74545504444206E-02 
544	 1,85925070520466E-02 
545	 1,93872057223027E-02 
546	 1,95208394807525E-02 
547	 1,93479604235813E-02 
548	 1,87181314064989E-02 
549	 1,78306421071391E-02 
550	 1,83039474861965E-02 
551	 1,93541474799508E-02 
552	 1,95516009440158E-02 
553	 1,88820942911139E-02 
554	 1,78021555330208E-02 
555	 1,81613826742227E-02 
556	 1,89598422678331E-02 
557	 1,92954223257717E-02 
558	 1,91642056010024E-02 
559	 1,89207125439771E-02 
560	 1,95690930004718E-02 
561	 1,98212449025427E-02 
562	 1,93492829066112E-02 
563	 1,96554414101262E-02 
564	 1,99388912928726E-02 
565	 1,89766576531799E-02 
566	 1,88312435309102E-02 
567	 1,96588655412283E-02 
568	 2,01207715977293E-02 
569	 2,00528130201107E-02 
570	 1,94354672049108E-02 
571	 1,92195151736162E-02 
572	 1,96801948293116E-02 
573	 2,12400572959942E-02 
574	 0,02152520400201 
575	 2,01824094512261E-02 
576	 2,04422635255817E-02 
577	 2,13077485881597E-02 
578	 2,14124013258805E-02 
579	 2,20016357912668E-02 
580	 2,27801403168387E-02 
581	 2,20248664294912E-02 
582	 0,021221392056626 
583	 2,12393454160039E-02 
584	 2,16697459076032E-02 
585	 2,20181305790524E-02 
586	 2,14739397280951E-02 
587	 2,14576039777386E-02 
588	 0,022144742035797 
589	 2,22198547419809E-02 
590	 2,21586048043875E-02 
591	 2,24179106153941E-02 
592	 2,20899782860439E-02 
593	 2,14841422218336E-02 
594	 2,19443674335002E-02 
595	 2,22241046508595E-02 
596	 2,18637456278128E-02 
597	 2,19972337951049E-02 
598	 2,22183214112476E-02 
599	 2,17429135564174E-02 
600	 2,14269478886248E-02 
601	 2,14723033994865E-02 
602	 2,16454625170988E-02 
603	 2,18811073240155E-02 
604	 2,20706991149548E-02 
605	 2,15759351689933E-02 
606	 0,020780539443831 
607	 2,09014838108052E-02 
608	 2,07809491462968E-02 
609	 2,02793958193784E-02 
610	 2,13148369044841E-02 
611	 2,21844925882781E-02 
612	 0,020659209755136 
613	 1,93716865519442E-02 
614	 1,89697885438131E-02 
615	 1,91051212325364E-02 
616	 0,019731204512239 
617	 2,06931977130996E-02 
618	 2,12508885079465E-02 
619	 2,12989869185185E-02 
620	 2,08458491720883E-02 
621	 2,06146623932133E-02 
622	 2,07772676472022E-02 
623	 2,08045683649252E-02 
624	 2,03983324007516E-02 
625	 1,93644031088746E-02 
626	 1,97919920481134E-02 
627	 2,12263474803999E-02 
628	 2,10043310715999E-02 
629	 2,05900551974126E-02 
630	 2,07867174608491E-02 
631	 2,17192314622111E-02 
632	 2,28111061010559E-02 
633	 2,31514244047979E-02 
634	 2,30046301566105E-02 
635	 0,022623415026771 
636	 2,26304540127843E-02 
637	 2,30708520581931E-02 
638	 2,38916585726321E-02 
639	 2,41711673621446E-02 
640	 2,39790555500622E-02 
641	 2,39192587863282E-02 
642	 2,40721551913882E-02 
643	 2,44931048416804E-02 
644	 2,50962191008399E-02 
645	 2,56042076050915E-02 
646	 2,56835751053127E-02 
647	 2,58228703718678E-02 
648	 2,60438932432462E-02 
649	 2,58236991225162E-02 
650	 2,61472673409358E-02 
651	 2,74873730711857E-02 
652	 2,77958403615596E-02 
653	 2,72827069108357E-02 
654	 2,69659731854624E-02 
655	 2,70965803166811E-02 
656	 0,027551094292731 
657	 2,69358412730849E-02 
658	 2,65029189999862E-02 
659	 2,75485252718402E-02 
660	 2,77314050037689E-02 
661	 2,70494154759509E-02 
662	 0,027073095515219 
663	 2,68662162857718E-02 
664	 2,60776362235724E-02 
665	 2,56565272086808E-02 
666	 2,53289976137149E-02 
667	 0,024461727263863 
668	 2,41278860089846E-02 
669	 2,44736315804499E-02 
670	 2,48870580984711E-02 
671	 2,48339742433038E-02 
672	 2,39887842460707E-02 
673	 2,36918821021141E-02 
674	 0,02382156482704 
675	 0,023329577242528 
676	 2,36445523534934E-02 
677	 2,49035686386995E-02 
678	 2,48350358906257E-02 
679	 2,42935271289982E-02 
680	 2,45031492103803E-02 
681	 2,41063726687321E-02 
682	 2,32977139101344E-02 
683	 2,36338361111311E-02 
684	 2,41081234108185E-02 
685	 2,41504109044596E-02 
686	 2,42769460504983E-02 
687	 2,45576004643025E-02 
688	 2,49966075125549E-02 
689	 2,55531649879397E-02 
690	 2,61776210463769E-02 
691	 2,67441583768979E-02 
692	 0,027314299226692 
693	 2,80001976587467E-02 
694	 2,95312855570022E-02 
695	 3,16609762741093E-02 
696	 3,33704720652373E-02 
697	 3,54069835602434E-02 
698	 3,80346130305312E-02 
699	 4,08909625955752E-02 
700	 0,044068586760539 
701	 4,77247241533063E-02 
702	 5,13066979719047E-02 
703	 5,48538896497462E-02 
704	 5,90008918282856E-02 
705	 6,34635575264161E-02 
706	 6,80230790548188E-02 
707	 7,24607254647008E-02 
708	 7,68840541658625E-02 
709	 0,081596214868933 
710	 8,61380343747211E-02 
711	 9,03650384691777E-02 
712	 9,43953898018951E-02 
713	 9,83875886845568E-02 
714	 0,102457166436537 
715	 0,106372914815232 
716	 0,11007715663939 
717	 0,113580091559556 
718	 0,116845829783817 
719	 0,11989487947373 
720	 0,12297357816528 
721	 0,125932957165256 
722	 0,128564231284964 
723	 0,131067066421355 
724	 0,13343571304038 
725	 0,135530207735215 
726	 0,137229308187622 
727	 0,138570600588037 
728	 0,140477739423768 
729	 0,142462710447892 
730	 0,143419989231791 
731	 0,144346784214521 
732	 0,145606431196667 
733	 0,147407786154382 
734	 0,14884911699203 
735	 0,149198689681805 
736	 0,149600439706083 
737	 0,150355487523198 
738	 0,151669368316558 
739	 0,152830866642497 
740	 0,153518610503127 
741	 0,153844947203255 
742	 0,153931948785838 
743	 0,153928523167708 
744	 0,154653153364121 
745	 0,155857570003777 
746	 0,156228948126869 
747	 0,156268849930981 
748	 0,156311956540627 
749	 0,156812194736692 
750	 0,15734226513269 
751	 0,157152255200563 
752	 0,1571178221007 
753	 0,157405192865687 
754	 0,157668390639926 
755	 0,157802763516805 
756	 0,157779969106068 
757	 0,158101930468628 
758	 0,158612531243052 
759	 0,158864355434541 
760	 0,158856608833296 
761	 0,158707695580445 
762	 0,159018595663742 
763	 0,159365514018061 
764	 0,15933587237872 
765	 0,15929581787691 
766	 0,159351734409095 
767	 0,159645534784785 
768	 0,159628233853459 
769	 0,159243248172334 
770	 0,159569199668084 
771	 0,160052764886024 
772	 0,159943572161588 
773	 0,159546085002419 
774	 0,15914290545736 
775	 0,159295028218659 
776	 0,159812106609386 
777	 0,160466271335855 
778	 0,160468718011302 
779	 0,160214485372151 
780	 0,160418492223129 
781	 0,160539323252187 
782	 0,160574723534133 
783	 0,161041196828833 
784	 0,161353926524165 
785	 0,161179618835759 
786	 0,16119704764483 
787	 0,161409176296779 
788	 0,161665988439598 
789	 0,161595975705157 
790	 0,161214014049995 
791	 0,161117501100097 
792	 0,161096029402731 
793	 0,160992554357638 
794	 0,161118989836633 
795	 0,161400466212602 
796	 0,161562735653347 
797	 0,161882287452365 
798	 0,16233586201303 
799	 0,162442971681169 
800	 0,162339668302676 
801	 0,162203210943764 
802	 0,162311437924625 
803	 0,162627297609123 
804	 0,162928439906718 
805	 0,163069564065065 
806	 0,163050618879007 
807	 0,163286347659733 
808	 0,163531117757781 
809	 0,163509998095904 
810	 0,163690312727202 
811	 0,164039465955326 
812	 0,164176529935417 
813	 0,164430113735842 
814	 0,164810960699867 
815	 0,164551815058328 
816	 0,164200271541566 
817	 0,164464846384019 
818	 0,164762894210638 
819	 0,164917279095631 
820	 0,164732575145306 
821	 0,164981228447112 
822	 0,165833620754901 
823	 0,165815572731846 
824	 0,165383868127865 
825	 0,165322387835053 
826	 0,166241857089164 
827	 0,167539496256614 
828	 0,166754751500904 
829	 0,166273444359599 
830	 0,167115989202283 
831	 0,167077755427275 
832	 0,16674491235205 
833	 0,167216796875 
834	 0,167290000046564 
835	 0,166986483161 
836	 0,167374491711557 
837	 0,167679470524559 
838	 0,167575427546396 
839	 0,167912886158429 
840	 0,168399731468048 
841	 0,168503434818055 
842	 0,168444824398385 
843	 0,16844811675129 
844	 0,169117906816585 
845	 0,169472616473795 
846	 0,169110736384007 
847	 0,169439839601697 
848	 0,169729274462651 
849	 0,168753198798996 
850	 0,168800606533956 
851	 0,169862398810865 
852	 0,169998883518632 
853	 0,169560961643268 
854	 0,168898767021948 
855	 0,169099182076861 
856	 0,16972488930177 
857	 0,169996770929531 
858	 0,170134178107063 
859	 0,170161189150065 
860	 0,170030146607659 
861	 0,16999182698342 
862	 0,170179938155787 
863	 0,170487696210191 
864	 0,170747266046202 
865	 0,170767518015311 
866	 0,170972950750796 
867	 0,171336368247564 
868	 0,171491643749097 
869	 0,171445712751516 
870	 0,171226757081632 
871	 0,170961127750824 
872	 0,170961096315717 
873	 0,171544849375629 
874	 0,171824237728337 
875	 0,171810427131346 
876	 0,172123614133053 
877	 0,172717060405389 
878	 0,173367523386331 
879	 0,172933027514122 
880	 0,172323943723974 
881	 0,172585947490716 
882	 0,172743924300734 
883	 0,172791447251225 
884	 0,173221059775375 
885	 0,173678351633439 
886	 0,174002931463609 
887	 0,174112599876897 
888	 0,174168164246849 
889	 0,174325189335178 
890	 0,174446591600971 
891	 0,174625025775538 
892	 0,175131754352877 
893	 0,175508547895977 
894	 0,175484894239941 
895	 0,174557786221099 
896	 0,174117256549735 
897	 0,175115782446733 
898	 0,175596940069703 
899	 0,175532547690567 
900	 0,175450436471687 
901	 0,17530198760025 
902	 0,175256456805462 
903	 0,175901906587347 
904	 0,176311491861908 
905	 0,175995697217416 
906	 0,175985246271417 
907	 0,176210987121038 
908	 0,176386990781809 
909	 0,176931800963247 
910	 0,177595056286795 
911	 0,177307876582503 
912	 0,177056035600003 
913	 0,177263777490256 
914	 0,177352104941936 
915	 0,17757559474822 
916	 0,178190709803107 
917	 0,177774902017318 
918	 0,176628112961681 
919	 0,176175023668884 
920	 0,17613211055645 
921	 0,176407975372875 
922	 0,176908093500968 
923	 0,176958500286065 
924	 0,176203794991454 
925	 0,176911227238277 
926	 0,178093731638459 
927	 0,177374585924715 
928	 0,1761253724232 
929	 0,175131354848314 
930	 0,175557123349275 
931	 0,176845297281876 
932	 0,178269299951226 
933	 0,177673288575323 
934	 0,176408115753859 
935	 0,176475303230569 
936	 0,17573143126849 
937	 0,174511851850784 
938	 0,175027600706675 
939	 0,175674048342008 
940	 0,175671225990533 
941	 0,174535526879176 
942	 0,173210369764533 
943	 0,172598882810685 
944	 0,172528285807197 
945	 0,172733867062003 
946	 0,172798873743822 
947	 0,172409867274338 
948	 0,171598260285463 
949	 0,170971844739317 
950	 0,170015522765443 
951	 0,168575457052076 
952	 0,167462661471801 
953	 0,167009059358134 
954	 0,167425809284497 
955	 0,167514486772042 
956	 0,166720682522969 
957	 0,164114819722851 
958	 0,163615072935944 
959	 0,165693447300267 
960	 0,165628874356733 
961	 0,164414628654577 
962	 0,163227019100163 
963	 0,164318819219142 
964	 0,165709426059232 
965	 0,163964967065399 
966	 0,162540167245279 
967	 0,162613632523014 
968	 0,165360043820364 
969	 0,165634223877577 
970	 0,162139113444783 
971	 0,161107450472162 
972	 0,161537677385035 
973	 0,16213650982838 
974	 0,163531101133392 
975	 0,164570912160439 
976	 0,163217806404631 
977	 0,162378348400344 
978	 0,162458548663178 
979	 0,161490183068165 
980	 0,161993242729989 
981	 0,164651666475225 
982	 0,165920310473952 
983	 0,165835280576403 
984	 0,16487163626 
985	 0,164485915254571 
986	 0,164365794839449 
987	 0,163165535324626 
988	 0,163949647805958 
989	 0,166550819311097 
990	 0,167208814338038 
991	 0,167257203501252 
992	 0,167234829024319 
993	 0,165838227016188 
994	 0,165556119425626 
995	 0,16858886722196 
996	 0,168198880446187 
997	 0,166390075845926 
998	 0,169596213299716 
999	 0,168791152231262 
1000	 0,164284026532243 
1001	 0,166301210413487 
1002	 0,170222399985702 
1003	 0,173462216838454 
1004	 0,176041994683383 
1005	 0,176251726276327 
1006	 0,17294379892694 
1007	 0,170718522522391 
1008	 0,170321430256433 
1009	 0,171299969218244 
1010	 0,173139260979299 
1011	 0,1745498528773 
1012	 0,172120739118518 
1013	 0,170863621330389 
1014	 0,172662496593109 
1015	 0,174452286180039 
1016	 0,175471206282823 
1017	 0,175565980355636 
1018	 0,17843659740686 
1019	 0,181321785565641 
1020	 0,179588479002478 
1021	 0,178698909238632 
1022	 0,179326532013496 
1023	 0,179418067412563 
1024	 0,179466293923822 
1025	 0,179915019935255 
1026	 0,181844409551705 
1027	 0,18529487418612 
1028	 0,189225466633903 
1029	 0,186745179749612 
1030	 0,18283728937822 
1031	 0,184065731157007 
1032	 0,186305134828831 
1033	 0,188327592061942 
1034	 0,189286470443413 
1035	 0,187789176922054 
1036	 0,183873565203425 
1037	 0,178407040495754 
1038	 0,178318987802951 
1039	 0,184866859540601 
1040	 0,186597541189567 
1041	 0,186561953625008 
1042	 0,18807101511175 
1043	 0,192711812936532 
1044	 0,199592902477157 
1045	 0,206505638420049 
1046	 0,196422126591781 
1047	 0,179323129885262 
1048	 0,188615125762283 
1049	 0,195572914319957 
1050	 0,19241448861669 
1051	 0,182176124367274 
1052	 0,182776716841238 
1053	 0,19720574311102 
1054	 0,188835069607139 
1055	 0,178044307666365 
1056	 0,183884401279989 
1057	 0,190376759623479 
1058	 0,196315391823142 
1059	 0,202847493200899 
1060	 0,197679701738742 
1061	 0,188759940940816 
1062	 0,200621103603672 
1063	 0,208172010068559 
1064	 0,204082152396732 
1065	 0,188981188306499 
1066	 0,186058237826628 
1067	 0,200204451321053 
1068	 0,194278165496459 
1069	 0,187593057306165 
1070	 0,194140338979719 
1071	 0,199326902230311 
1072	 0,199425816768186 
1073	 0,193058069630001 
1074	 0,193505069122922 
1075	 0,196127200374859 
