Wavelength	PENFOUL00259.asd
325	 7,51519288622552E-02 
326	 0,209404963712454 
327	 0,344762174310041 
328	 0,336199965587899 
329	 0,292540852621269 
330	 0,235843198641432 
331	 0,210981623144704 
332	 0,163035135847854 
333	 9,24708866597486E-02 
334	 0,104433788335011 
335	 0,161137154531312 
336	 0,216410576024163 
337	 0,135321453605756 
338	 6,69460426241274E-02 
339	 0,14838839946246 
340	 0,174739962250042 
341	 0,157527061834438 
342	 0,175649589531673 
343	 0,131832574267539 
344	 2,27473530316817E-02 
345	 5,52813526922553E-02 
346	 9,78093533788394E-02 
347	 2,08197465201929E-02 
348	 3,65385315155038E-02 
349	 0,114511353361132 
350	 0,108924507086118 
351	 7,96371003446236E-02 
352	 5,42007820026675E-02 
353	 7,26477081928635E-02 
354	 9,02659626113779E-02 
355	 6,32670756786204E-02 
356	 3,63199991038322E-02 
357	 3,01023446632993E-02 
358	 8,22314107720897E-02 
359	 0,101565098349068 
360	 6,05551305645987E-02 
361	 4,80463573968113E-02 
362	 6,02897419638066E-02 
363	 7,43489101709946E-02 
364	 8,06821781182807E-02 
365	 8,03482965095726E-02 
366	 8,49323103996542E-02 
367	 0,093110486870182 
368	 9,97481266954212E-02 
369	 6,51507661888285E-02 
370	 3,05899081090748E-02 
371	 8,15632973389448E-02 
372	 8,32402965547318E-02 
373	 2,77639658749385E-02 
374	 6,59103776841815E-02 
375	 0,104822118189801 
376	 0,08433093234382 
377	 7,60475188038771E-02 
378	 7,81004567577313E-02 
379	 5,83504195686007E-02 
380	 3,83836470290415E-02 
381	 0,029827007659674 
382	 0,041508578291716 
383	 5,10051085069705E-02 
384	 3,97915874614535E-02 
385	 4,47622243671517E-02 
386	 5,80244252720262E-02 
387	 3,78976737469897E-02 
388	 3,54522006432144E-02 
389	 6,20417747821952E-02 
390	 6,56845570005362E-02 
391	 5,59597825122918E-02 
392	 4,91280680074996E-02 
393	 3,69237731502115E-02 
394	 2,63170075625815E-02 
395	 4,20584001567384E-02 
396	 5,34175437049887E-02 
397	 0,046324864148823 
398	 4,73237896620397E-02 
399	 5,21704061231401E-02 
400	 5,04021014873393E-02 
401	 4,77786254472112E-02 
402	 4,50731733653963E-02 
403	 3,97441033050536E-02 
404	 3,69609963022251E-02 
405	 3,94699612365786E-02 
406	 4,22056869452635E-02 
407	 4,44972014036266E-02 
408	 4,67091679828787E-02 
409	 4,68008290218998E-02 
410	 4,56352320397894E-02 
411	 5,02498533969086E-02 
412	 5,27516120659034E-02 
413	 4,58295976134386E-02 
414	 3,53098265951134E-02 
415	 2,71655365593314E-02 
416	 3,37223812560135E-02 
417	 4,06304998565592E-02 
418	 4,25938129409305E-02 
419	 4,80280905266052E-02 
420	 5,10242622560522E-02 
421	 4,37457311861193E-02 
422	 4,09139598097604E-02 
423	 4,35163530447235E-02 
424	 4,19322746949978E-02 
425	 4,02507878483158E-02 
426	 4,06003999449584E-02 
427	 3,95211080079489E-02 
428	 3,75536974851469E-02 
429	 3,62709373334523E-02 
430	 3,62497348309031E-02 
431	 3,74764000685035E-02 
432	 3,90744487459148E-02 
433	 3,96937555242017E-02 
434	 3,83946033474039E-02 
435	 3,78334117102003E-02 
436	 0,038402759738783 
437	 3,96462935265579E-02 
438	 4,11825050537929E-02 
439	 4,27626126617685E-02 
440	 4,49730096917229E-02 
441	 4,52558699950403E-02 
442	 0,04045243894419 
443	 3,78922658306639E-02 
444	 3,84866114544044E-02 
445	 3,86973486584968E-02 
446	 3,87045123448665E-02 
447	 3,84528382553781E-02 
448	 3,69285320327404E-02 
449	 3,52799962710053E-02 
450	 3,58388400263496E-02 
451	 3,68274610009581E-02 
452	 3,78659248749578E-02 
453	 4,00175115825772E-02 
454	 0,041889711444648 
455	 4,20754236360087E-02 
456	 3,93134411579532E-02 
457	 3,51991683973994E-02 
458	 0,034029815753043 
459	 3,50334870500654E-02 
460	 0,03744630753821 
461	 3,81365609765247E-02 
462	 3,89258593546345E-02 
463	 4,26579845905385E-02 
464	 4,36776337902766E-02 
465	 4,13777188909977E-02 
466	 3,85113120358229E-02 
467	 3,77424070418312E-02 
468	 0,040403978935201 
469	 0,041899920843562 
470	 0,041380430489367 
471	 0,038184525120434 
472	 3,88271203762963E-02 
473	 4,38652001631411E-02 
474	 4,51931109987363E-02 
475	 4,33389994439724E-02 
476	 3,95557535891077E-02 
477	 3,89756670888501E-02 
478	 4,11764261519066E-02 
479	 4,16707608105162E-02 
480	 0,042132581336786 
481	 4,28985840110715E-02 
482	 4,13855388337237E-02 
483	 3,93995295344642E-02 
484	 3,98099189982926E-02 
485	 4,15515301579027E-02 
486	 4,35237820841621E-02 
487	 4,28781489161968E-02 
488	 4,21894402341309E-02 
489	 4,32876191141858E-02 
490	 4,32238135897285E-02 
491	 4,27677536884416E-02 
492	 4,51271039880262E-02 
493	 4,53584002497711E-02 
494	 0,0425878299236 
495	 4,23006905175002E-02 
496	 4,25968937306361E-02 
497	 4,09203932814551E-02 
498	 4,09299310793279E-02 
499	 4,26558844585936E-02 
500	 0,043772971399359 
501	 4,42620705434511E-02 
502	 4,41804841125212E-02 
503	 4,47121594095462E-02 
504	 4,48095563487387E-02 
505	 4,21919503979476E-02 
506	 4,10621247681671E-02 
507	 4,24337591061113E-02 
508	 4,48466105613878E-02 
509	 4,57970274883391E-02 
510	 4,34436268257261E-02 
511	 4,36505503291039E-02 
512	 4,58179673631643E-02 
513	 4,52389309982226E-02 
514	 4,50867270112979E-02 
515	 4,63638585080181E-02 
516	 4,64240351155223E-02 
517	 4,59961592512334E-02 
518	 4,64240109822226E-02 
519	 4,72166182044303E-02 
520	 4,79290896290598E-02 
521	 4,74331725280809E-02 
522	 4,68289817321551E-02 
523	 4,69010071323769E-02 
524	 4,67596795226647E-02 
525	 4,66639806989316E-02 
526	 4,76293150341408E-02 
527	 4,79349986544961E-02 
528	 4,72563742270854E-02 
529	 4,73196356614909E-02 
530	 4,78986108360233E-02 
531	 4,85751363992396E-02 
532	 4,89018630379654E-02 
533	 4,88260109641452E-02 
534	 4,84929813550557E-02 
535	 4,87001760284813E-02 
536	 0,049715919271391 
537	 4,94444594440057E-02 
538	 0,048698958097746 
539	 4,95159475399659E-02 
540	 0,050175100868453 
541	 5,02025795258408E-02 
542	 4,99103562775081E-02 
543	 5,00660764519782E-02 
544	 5,12937969122233E-02 
545	 5,11638355865328E-02 
546	 5,00164351423072E-02 
547	 5,02515573120438E-02 
548	 5,03228131176725E-02 
549	 4,98012985212798E-02 
550	 5,10757371955608E-02 
551	 5,27829594239109E-02 
552	 0,052486132718922 
553	 5,17610466281153E-02 
554	 5,12222538857887E-02 
555	 5,12879129520191E-02 
556	 5,18935418982422E-02 
557	 5,29038349864934E-02 
558	 5,36290469795768E-02 
559	 5,38934213859485E-02 
560	 0,053655289038565 
561	 5,33036984718997E-02 
562	 5,30537489245528E-02 
563	 5,29710649940633E-02 
564	 5,28183272146103E-02 
565	 5,22646955554238E-02 
566	 5,26114529731965E-02 
567	 0,053716594080812 
568	 5,38341096476233E-02 
569	 5,39728156953279E-02 
570	 5,47700939961253E-02 
571	 5,51937825484562E-02 
572	 5,53291098482035E-02 
573	 5,57980683084121E-02 
574	 5,55899064934181E-02 
575	 5,47606678567141E-02 
576	 5,54709934166966E-02 
577	 5,66390909792782E-02 
578	 5,69020991373267E-02 
579	 5,77803411107903E-02 
580	 5,88417030094826E-02 
581	 5,76560424195416E-02 
582	 5,66638531543172E-02 
583	 5,72756522608645E-02 
584	 5,86423115047718E-02 
585	 5,98575272444726E-02 
586	 0,05957735345158 
587	 5,92852218174714E-02 
588	 5,93943091121055E-02 
589	 5,93624840617795E-02 
590	 5,97710317210889E-02 
591	 6,10635721885833E-02 
592	 6,11680223304991E-02 
593	 6,02959003138891E-02 
594	 6,01333879575916E-02 
595	 6,02758823069098E-02 
596	 6,05845485856909E-02 
597	 6,11765111271921E-02 
598	 0,061559325035675 
599	 6,09897736824179E-02 
600	 6,10176593336422E-02 
601	 6,17083454377094E-02 
602	 6,14303689505561E-02 
603	 6,12606608837891E-02 
604	 6,19312041455549E-02 
605	 6,13100272523596E-02 
606	 6,00463904770071E-02 
607	 6,06525677750347E-02 
608	 6,09078100735564E-02 
609	 6,03138197869749E-02 
610	 6,11367428570279E-02 
611	 0,061969197117349 
612	 6,08968858544609E-02 
613	 6,00069418129027E-02 
614	 5,98070559357837E-02 
615	 6,01039437533534E-02 
616	 0,06047285239015 
617	 6,06055596042694E-02 
618	 6,05010144212475E-02 
619	 6,04510363217142E-02 
620	 6,10933486955721E-02 
621	 6,12897568182631E-02 
622	 0,060762117821672 
623	 6,01409263091091E-02 
624	 5,97844437455571E-02 
625	 6,00076368964433E-02 
626	 6,04994412157471E-02 
627	 6,09678160983733E-02 
628	 6,08610613087721E-02 
629	 6,05871128277144E-02 
630	 6,04713939660989E-02 
631	 6,11797708653542E-02 
632	 6,20582483075025E-02 
633	 6,19494263188667E-02 
634	 6,16790324027897E-02 
635	 6,16348467555438E-02 
636	 6,23692550641076E-02 
637	 6,29669540229885E-02 
638	 0,062717082369528 
639	 0,063117520799121 
640	 6,39383470910346E-02 
641	 6,38864618484059E-02 
642	 6,38869835264709E-02 
643	 6,41900840099749E-02 
644	 6,39504290700731E-02 
645	 6,37308298864483E-02 
646	 6,43433263151476E-02 
647	 6,46040865932074E-02 
648	 6,43325941080737E-02 
649	 6,39378328671496E-02 
650	 6,40112377013802E-02 
651	 6,47766789792758E-02 
652	 6,43646555839701E-02 
653	 6,32583012598023E-02 
654	 6,29604805184999E-02 
655	 6,30925623106848E-02 
656	 6,33578654726399E-02 
657	 6,27758052568392E-02 
658	 6,21115166584624E-02 
659	 6,21850346898151E-02 
660	 6,18459476791719E-02 
661	 6,11247833446814E-02 
662	 6,07925490660315E-02 
663	 6,06536791367542E-02 
664	 6,05799467852672E-02 
665	 6,04356079374998E-02 
666	 5,98970843322326E-02 
667	 5,84370239059738E-02 
668	 5,81619401985418E-02 
669	 5,91672532819335E-02 
670	 5,92099617244278E-02 
671	 5,90612350409132E-02 
672	 5,93305326697149E-02 
673	 5,91920942273354E-02 
674	 5,87225307214058E-02 
675	 5,82992475284388E-02 
676	 5,84955757902244E-02 
677	 5,93175237659195E-02 
678	 5,93653099728708E-02 
679	 5,91536480943819E-02 
680	 5,94278856120465E-02 
681	 5,96445112330827E-02 
682	 5,98596106767778E-02 
683	 6,07117714832248E-02 
684	 0,061186516824617 
685	 6,08656648765699E-02 
686	 6,15769994587113E-02 
687	 6,28702326918622E-02 
688	 6,35110226651623E-02 
689	 6,42214024956506E-02 
690	 6,51785123408378E-02 
691	 6,62144081180303E-02 
692	 6,73633419766619E-02 
693	 6,86786426335393E-02 
694	 7,04165071845806E-02 
695	 7,24664542547899E-02 
696	 7,43762129989049E-02 
697	 7,66916556553621E-02 
698	 7,96054820140242E-02 
699	 8,28726750740596E-02 
700	 8,61232103884252E-02 
701	 8,89349012755382E-02 
702	 9,16997363499006E-02 
703	 9,46480617829148E-02 
704	 9,82582489256492E-02 
705	 0,101584153967595 
706	 0,104100113675002 
707	 0,106869154518319 
708	 0,109856082853264 
709	 0,112725886950522 
710	 0,115349861508423 
711	 0,117661717175428 
712	 0,119698618205718 
713	 0,121571106318748 
714	 0,123380497668863 
715	 0,125211740263407 
716	 0,126980627559056 
717	 0,128429198786898 
718	 0,129728930557372 
719	 0,130975170135334 
720	 0,132307564444796 
721	 0,13349577035395 
722	 0,13423839861409 
723	 0,135019326247939 
724	 0,136019177910208 
725	 0,137496979834857 
726	 0,138354789838569 
727	 0,138131326047627 
728	 0,139090395621217 
729	 0,140551592045762 
730	 0,140735777975809 
731	 0,140896679109282 
732	 0,141350590107724 
733	 0,141790284903817 
734	 0,142129756725788 
735	 0,142326041162154 
736	 0,14272627329364 
737	 0,143365447985011 
738	 0,144226125482658 
739	 0,144808292682819 
740	 0,144967343742253 
741	 0,145221151131207 
742	 0,145448570602007 
743	 0,145468321057978 
744	 0,145775435592206 
745	 0,146317052544617 
746	 0,146602544910754 
747	 0,146697095179443 
748	 0,14670409919582 
749	 0,147154722885768 
750	 0,147708700728563 
751	 0,147738714045204 
752	 0,148050543346732 
753	 0,14860748322529 
754	 0,14842005517205 
755	 0,148136529741867 
756	 0,148257255199275 
757	 0,148637485916366 
758	 0,149201421394015 
759	 0,14992180296412 
760	 0,149972230483655 
761	 0,14938242612474 
762	 0,149730305198479 
763	 0,15020212842636 
764	 0,150008953089024 
765	 0,150246340667709 
766	 0,150826855456369 
767	 0,151008994287916 
768	 0,151080673882121 
769	 0,151169459077672 
770	 0,151366755743029 
771	 0,15169726728834 
772	 0,152163777414859 
773	 0,152270945504203 
774	 0,152138396389319 
775	 0,152504362419956 
776	 0,152880116138105 
777	 0,15300687370276 
778	 0,152955339290021 
779	 0,152920742407289 
780	 0,153165044086106 
781	 0,153661409100156 
782	 0,15417633943213 
783	 0,153933686293863 
784	 0,153706395666994 
785	 0,153970832183642 
786	 0,154040585305447 
787	 0,154103561208815 
788	 0,15469582042246 
789	 0,154774975395178 
790	 0,154318062828686 
791	 0,15463125909135 
792	 0,155051704106783 
793	 0,155042487253485 
794	 0,155090603770272 
795	 0,15519433917825 
796	 0,155116961719076 
797	 0,155615560271086 
798	 0,156623319737158 
799	 0,156633344651496 
800	 0,156134057356422 
801	 0,155714818355864 
802	 0,155936048110208 
803	 0,156606182450983 
804	 0,157004499055701 
805	 0,156899581691452 
806	 0,156421296438765 
807	 0,156985804564179 
808	 0,157562654751775 
809	 0,157011397796311 
810	 0,157000174242698 
811	 0,157600742978227 
812	 0,158057009095172 
813	 0,158264317286469 
814	 0,158250636747651 
815	 0,158749344028526 
816	 0,159098033729664 
817	 0,158477480551946 
818	 0,158140649027053 
819	 0,158330953450535 
820	 0,158884919552857 
821	 0,159201133939387 
822	 0,15906555778916 
823	 0,159321509571651 
824	 0,159652982267961 
825	 0,159559346826486 
826	 0,160067204960722 
827	 0,160908698668673 
828	 0,160458625702608 
829	 0,160001821397594 
830	 0,160143139918702 
831	 0,1600245454892 
832	 0,159982155683206 
833	 0,160572922683688 
834	 0,160739942946879 
835	 0,160487751867863 
836	 0,160796836758357 
837	 0,160903216204505 
838	 0,160546219368916 
839	 0,160923195695177 
840	 0,161616451779762 
841	 0,161860385874003 
842	 0,161656349381414 
843	 0,161251081419716 
844	 0,161477027314833 
845	 0,161711732111251 
846	 0,161726647556058 
847	 0,162531579844851 
848	 0,163313032671277 
849	 0,162817773496008 
850	 0,162329783539331 
851	 0,162252193652172 
852	 0,162815498037832 
853	 0,162906229962099 
854	 0,162082196635493 
855	 0,161863286046286 
856	 0,162075657480905 
857	 0,162235221480576 
858	 0,162577691591034 
859	 0,162917288443227 
860	 0,162518090276452 
861	 0,162357457108257 
862	 0,162858946427763 
863	 0,163125812620304 
864	 0,163252178104095 
865	 0,16348388291006 
866	 0,163877192721661 
867	 0,164234762084552 
868	 0,163887141973398 
869	 0,163676755734602 
870	 0,163921940746445 
871	 0,163823097623927 
872	 0,163680174263866 
873	 0,163924399033001 
874	 0,164101948389684 
875	 0,164165079790991 
876	 0,164231648187489 
877	 0,164614663610751 
878	 0,165194572427985 
879	 0,164465908384074 
880	 0,163728934837544 
881	 0,164431577862927 
882	 0,164719736384711 
883	 0,164551159927041 
884	 0,164781810064206 
885	 0,165314849445804 
886	 0,16594501331437 
887	 0,165750995316232 
888	 0,165344649187278 
889	 0,16538460007546 
890	 0,16608798612677 
891	 0,16692893963534 
892	 0,166652619655885 
893	 0,166686238101179 
894	 0,167157724447785 
895	 0,166403739369808 
896	 0,165851179675732 
897	 0,166551296190922 
898	 0,166986606409998 
899	 0,166914068377478 
900	 0,166307688535743 
901	 0,166416450289258 
902	 0,167237358266165 
903	 0,167237705675375 
904	 0,167131622721205 
905	 0,167328770545719 
906	 0,167327941804797 
907	 0,167253154631043 
908	 0,167352234073299 
909	 0,167780675671779 
910	 0,168328800536686 
911	 0,168213109183095 
912	 0,168129887728706 
913	 0,168409352252003 
914	 0,168902997520013 
915	 0,169229647587745 
916	 0,168996154448588 
917	 0,168464633030963 
918	 0,167901909186362 
919	 0,167722167623547 
920	 0,168048507044308 
921	 0,168732578759323 
922	 0,168913922690889 
923	 0,168748105691236 
924	 0,168434650847468 
925	 0,168155289127226 
926	 0,168187205319652 
927	 0,168968689553395 
928	 0,168977067144116 
929	 0,168057112036499 
930	 0,167217088674499 
931	 0,16750909714019 
932	 0,169226158269816 
933	 0,169864187540576 
934	 0,169613447153095 
935	 0,169149731506496 
936	 0,169408106334463 
937	 0,17014634390963 
938	 0,170017561695519 
939	 0,169567959996293 
940	 0,169063638328717 
941	 0,168698736570272 
942	 0,168877197590437 
943	 0,169761698541533 
944	 0,169417946791544 
945	 0,168403418048167 
946	 0,16831503917528 
947	 0,169222227976684 
948	 0,170370403298692 
949	 0,168917722552897 
950	 0,167469713408157 
951	 0,167435550387896 
952	 0,167237466955307 
953	 0,166943495819163 
954	 0,166811965626307 
955	 0,166774334417836 
956	 0,16674769459662 
957	 0,166473809146762 
958	 0,16673838825966 
959	 0,167705538833408 
960	 0,169003631646399 
961	 0,168989270717318 
962	 0,166893596057422 
963	 0,167136773949342 
964	 0,168387899887807 
965	 0,167675214888395 
966	 0,166719429986219 
967	 0,166182255312584 
968	 0,166843662186351 
969	 0,167309114203216 
970	 0,166856334760582 
971	 0,165266563278897 
972	 0,163946915480472 
973	 0,164328035516723 
974	 0,167665644970162 
975	 0,171200611058263 
976	 0,16990405064968 
977	 0,16789308887198 
978	 0,166986625457037 
979	 0,169015149706655 
980	 0,171240224084034 
981	 0,171964870525721 
982	 0,170736425604587 
983	 0,16898569382886 
984	 0,168204569709717 
985	 0,167363684282379 
986	 0,16716831228168 
987	 0,169175419175419 
988	 0,172113663142586 
989	 0,17440766794856 
990	 0,172121501379385 
991	 0,171180561551979 
992	 0,173723253611091 
993	 0,171914790889116 
994	 0,169779580449848 
995	 0,17184821478437 
996	 0,172774687074597 
997	 0,172697370193273 
998	 0,173779855604062 
999	 0,174874696705604 
1000	 0,175184116836536 
1001	 0,172855840480901 
1002	 0,171960340238777 
1003	 0,174150355237938 
1004	 0,176020737165952 
1005	 0,176056019529691 
1006	 0,173597692218495 
1007	 0,175141749876072 
1008	 0,177998327568271 
1009	 0,175475401532024 
1010	 0,174080956261142 
1011	 0,174774296045594 
1012	 0,174442499017749 
1013	 0,175279234643194 
1014	 0,17805172158471 
1015	 0,182312103700676 
1016	 0,183468703644525 
1017	 0,178712690650722 
1018	 0,178150234399383 
1019	 0,1809992753415 
1020	 0,183612310489738 
1021	 0,180643057438083 
1022	 0,175129067418404 
1023	 0,179866014484791 
1024	 0,182518445925624 
1025	 0,180291801623931 
1026	 0,180850208631315 
1027	 0,18103106306359 
1028	 0,179138872407118 
1029	 0,178535893401888 
1030	 0,180036780115088 
1031	 0,183665945544389 
1032	 0,182515703647284 
1033	 0,180589179081471 
1034	 0,188824909868807 
1035	 0,190697291165056 
1036	 0,184772487968253 
1037	 0,18346864315785 
1038	 0,181496274984127 
1039	 0,178423621138496 
1040	 0,183104368010449 
1041	 0,188996193850123 
1042	 0,19075379308636 
1043	 0,195123769892932 
1044	 0,199397056893204 
1045	 0,198828563132082 
1046	 0,191969405258274 
1047	 0,183607408807306 
1048	 0,185890605991004 
1049	 0,188618535473232 
1050	 0,18848696316504 
1051	 0,184518310063947 
1052	 0,185658806006219 
1053	 0,19386853591462 
1054	 0,194324050646092 
1055	 0,190715204148311 
1056	 0,187643740328616 
1057	 0,187611210574254 
1058	 0,19063979797272 
1059	 0,195821693567459 
1060	 0,19963223874663 
1061	 0,199227708883522 
1062	 0,190161186370417 
1063	 0,190771246646574 
1064	 0,201471204778976 
1065	 0,201929813835882 
1066	 0,199649733341296 
1067	 0,198910508662874 
1068	 0,204848350935422 
1069	 0,203407563393207 
1070	 0,187486301740109 
1071	 0,185571244539053 
1072	 0,188416463507735 
1073	 0,181236059610924 
1074	 0,181473948733493 
1075	 0,186481008763034 
