Wavelength	PENFOUL00637.asd
325	 0,459465500368495 
326	 0,63703845950098 
327	 0,788499054896847 
328	 0,781154682391954 
329	 0,729054977060673 
330	 0,59617556253195 
331	 0,471118553579594 
332	 0,523971645721078 
333	 0,666650841127411 
334	 0,602831333660799 
335	 0,4749521534588 
336	 0,363041445933313 
337	 0,387315997691421 
338	 0,442596730066487 
339	 0,422833892139163 
340	 0,415916247347818 
341	 0,426744945986171 
342	 0,453800227320076 
343	 0,441374280109683 
344	 0,383431041473242 
345	 0,383850322063467 
346	 0,410108954873799 
347	 0,418841084412364 
348	 0,429070324355317 
349	 0,433809059582111 
350	 0,404776045354052 
351	 0,383072356793477 
352	 0,384335257478538 
353	 0,399561568767435 
354	 0,414700764054343 
355	 0,420919364177512 
356	 0,430250142826737 
357	 0,439177713567285 
358	 0,430294631860451 
359	 0,416369640629178 
360	 0,406506010116446 
361	 0,429668445248024 
362	 0,458132916776219 
363	 0,445731930140423 
364	 0,433259426379702 
365	 0,427058124403905 
366	 0,415668387229333 
367	 0,418399655786827 
368	 0,441398094280292 
369	 0,439252100840336 
370	 0,429640205962588 
371	 0,455880901034145 
372	 0,455346707370257 
373	 0,427428887751278 
374	 0,453890308177403 
375	 0,474393997953648 
376	 0,451616768253948 
377	 0,455685096799357 
378	 0,475165279924743 
379	 0,462175918955677 
380	 0,46244955917189 
381	 0,48024012006003 
382	 0,457296399999533 
383	 0,440716842756491 
384	 0,471557639532721 
385	 0,477869028372461 
386	 0,461854451327641 
387	 0,46583652152664 
388	 0,473624254465165 
389	 0,478835433443744 
390	 0,483213042322884 
391	 0,48041834190941 
392	 0,463508820521561 
393	 0,4513277016294 
394	 0,450286662998785 
395	 0,467096275898399 
396	 0,477411884902347 
397	 0,47076428840035 
398	 0,473629934675007 
399	 0,484180391690508 
400	 0,495958072791118 
401	 0,49567928907625 
402	 0,483519254620858 
403	 0,473223893699178 
404	 0,472142100235253 
405	 0,481874125879255 
406	 0,477381171749115 
407	 0,466001054556234 
408	 0,471409928986629 
409	 0,471112809845018 
410	 0,462839658704899 
411	 0,46626439160415 
412	 0,472354521298396 
413	 0,471978616698333 
414	 0,470411999022055 
415	 0,470526435790144 
416	 0,478573245389389 
417	 0,479500377337596 
418	 0,470657947112192 
419	 0,475432096922153 
420	 0,482254327811834 
421	 0,474703608592924 
422	 0,475409292362254 
423	 0,4838725212924 
424	 0,48014461234579 
425	 0,475707707700347 
426	 0,476933201328861 
427	 0,475712965322344 
428	 0,473950484702813 
429	 0,476853372898456 
430	 0,479723823638252 
431	 0,480905123828399 
432	 0,480017915558756 
433	 0,479122379657974 
434	 0,479787267620799 
435	 0,477172465638494 
436	 0,473873896248157 
437	 0,478859790721514 
438	 0,482604717469974 
439	 0,481870213532689 
440	 0,48310734336346 
441	 0,483096181210377 
442	 0,47718889810881 
443	 0,476176984068585 
444	 0,480406169981689 
445	 0,481662893814081 
446	 0,482804685497937 
447	 0,485092777804964 
448	 0,484099508564025 
449	 0,48171129656384 
450	 0,482422774339867 
451	 0,483756839547088 
452	 0,485044074833999 
453	 0,486804994697337 
454	 0,488049067579197 
455	 0,487808234179415 
456	 0,485158738204659 
457	 0,481916117902075 
458	 0,483024638684493 
459	 0,485095841118585 
460	 0,486496373323256 
461	 0,486915039093082 
462	 0,48734386365525 
463	 0,489144214335245 
464	 0,490509557666743 
465	 0,490980327836338 
466	 0,490712933773396 
467	 0,490107590055383 
468	 0,48954638777299 
469	 0,489812926809296 
470	 0,490226635244188 
471	 0,488837374798633 
472	 0,490495489369044 
473	 0,495331294443637 
474	 0,496689712442205 
475	 0,4952029223002 
476	 0,492089074716325 
477	 0,49113453575869 
478	 0,492472454988586 
479	 0,494015020519661 
480	 0,494933618759428 
481	 0,494879648468439 
482	 0,495223419964186 
483	 0,495450424088633 
484	 0,494533709743676 
485	 0,494962359635977 
486	 0,496526350835999 
487	 0,495606002357984 
488	 0,495344064220357 
489	 0,497786107304066 
490	 0,497564219891816 
491	 0,495840551899565 
492	 0,497295787779025 
493	 0,498377774715237 
494	 0,49808094034114 
495	 0,498043814859001 
496	 0,497629066759191 
497	 0,49604574903756 
498	 0,497324283196104 
499	 0,500622601823507 
500	 0,500590898948377 
501	 0,500146558322622 
502	 0,500789470112185 
503	 0,500692109642773 
504	 0,500099715616076 
505	 0,49969532133767 
506	 0,500213811112197 
507	 0,501608504515383 
508	 0,502771585517156 
509	 0,502851308176623 
510	 0,501357610651115 
511	 0,501985154069535 
512	 0,504253174176707 
513	 0,505077505397218 
514	 0,505562958777474 
515	 0,506116675037544 
516	 0,506630344633238 
517	 0,506866263171185 
518	 0,506489807679503 
519	 0,506402638471717 
520	 0,506749642202616 
521	 0,507111841652266 
522	 0,507314014303702 
523	 0,507252242728933 
524	 0,507212660089185 
525	 0,507277694897035 
526	 0,507523204247242 
527	 0,507701876913457 
528	 0,507778963089744 
529	 0,508204243817822 
530	 0,508354483409808 
531	 0,50751481216084 
532	 0,506674730718014 
533	 0,506443773310948 
534	 0,507982967306392 
535	 0,509066674954013 
536	 0,508487482444288 
537	 0,508255644637243 
538	 0,508360108608861 
539	 0,508252640723948 
540	 0,508201229863502 
541	 0,50814641027038 
542	 0,507404390822188 
543	 0,506937403723314 
544	 0,507661899787397 
545	 0,508488296311516 
546	 0,509054107501532 
547	 0,509183778884052 
548	 0,508679633720968 
549	 0,507749945544285 
550	 0,508344573095443 
551	 0,50973631342195 
552	 0,510499415629114 
553	 0,510782883269365 
554	 0,510743531872272 
555	 0,511084776973681 
556	 0,511310064438467 
557	 0,511003721667251 
558	 0,510410547644936 
559	 0,509882895337672 
560	 0,510232906343598 
561	 0,510177558078007 
562	 0,5094033037231 
563	 0,509502062074464 
564	 0,509742823803647 
565	 0,508986792125891 
566	 0,508534028974705 
567	 0,50874749463036 
568	 0,509672503692571 
569	 0,510408013401307 
570	 0,510434258766916 
571	 0,511219122932009 
572	 0,512712547308391 
573	 0,514395010818963 
574	 0,515588677018906 
575	 0,51614438880405 
576	 0,516968207920305 
577	 0,517815463078873 
578	 0,51836596642616 
579	 0,519850798820076 
580	 0,521866306463493 
581	 0,522305437527372 
582	 0,522506432222909 
583	 0,523282096182794 
584	 0,524555770125531 
585	 0,525937900907544 
586	 0,526746235772591 
587	 0,527797687767582 
588	 0,529154838998824 
589	 0,529954085256986 
590	 0,530689196034893 
591	 0,531820795094461 
592	 0,532749265588377 
593	 0,533290729646554 
594	 0,533182614074381 
595	 0,533415603724861 
596	 0,534328283965121 
597	 0,534685687475974 
598	 0,534611394891293 
599	 0,534488227852135 
600	 0,534518200484112 
601	 0,534699050824349 
602	 0,534708564189387 
603	 0,53463450983955 
604	 0,534493800229258 
605	 0,533523499721791 
606	 0,532264523106344 
607	 0,532313955411602 
608	 0,532330884154304 
609	 0,531987235825486 
610	 0,532577967219974 
611	 0,532908277301916 
612	 0,531428424502209 
613	 0,530378716774728 
614	 0,530204540752949 
615	 0,530371770332621 
616	 0,530385102169214 
617	 0,529984180818673 
618	 0,530060487752747 
619	 0,530417635411082 
620	 0,53044280027304 
621	 0,530295273385838 
622	 0,53001854031789 
623	 0,529653290444805 
624	 0,5292367208731 
625	 0,528839491759877 
626	 0,529463679210386 
627	 0,530713813006291 
628	 0,530812297901572 
629	 0,53101452833194 
630	 0,531847423050438 
631	 0,532282006780459 
632	 0,532353898082646 
633	 0,532287337829487 
634	 0,532627204935913 
635	 0,53341152182218 
636	 0,533944090033429 
637	 0,534604220846346 
638	 0,535661444868406 
639	 0,536038044232269 
640	 0,536029561812216 
641	 0,53686875125039 
642	 0,537844558677603 
643	 0,538601947209677 
644	 0,538857516811899 
645	 0,538862769660397 
646	 0,538983416057162 
647	 0,538994896420283 
648	 0,53888028294636 
649	 0,538798822856725 
650	 0,538474547584768 
651	 0,537698212149846 
652	 0,536284413692802 
653	 0,534854794692192 
654	 0,53464914957314 
655	 0,534704535254303 
656	 0,534503714549696 
657	 0,533348191098964 
658	 0,53196429808157 
659	 0,531129819751232 
660	 0,52996079211511 
661	 0,52845065042172 
662	 0,527000470110154 
663	 0,526102910205671 
664	 0,52583540855089 
665	 0,524706897441336 
666	 0,523313137139252 
667	 0,522840527391108 
668	 0,522606352576667 
669	 0,522327671253208 
670	 0,521601991102115 
671	 0,521203752013427 
672	 0,521670298490746 
673	 0,521634546669814 
674	 0,521104259920161 
675	 0,520571994274633 
676	 0,520731350556224 
677	 0,521596171125261 
678	 0,521455982911341 
679	 0,521107080333054 
680	 0,521647397985538 
681	 0,522169466715292 
682	 0,522549966362377 
683	 0,523050734250761 
684	 0,523706985923265 
685	 0,524605583846253 
686	 0,526151755570694 
687	 0,528038418808116 
688	 0,529624496137299 
689	 0,531536388598161 
690	 0,534083001620663 
691	 0,537635369618066 
692	 0,541554033465209 
693	 0,545294352464966 
694	 0,54967078017617 
695	 0,554763995100898 
696	 0,560448568574668 
697	 0,566314834229047 
698	 0,572196001925446 
699	 0,57847477862235 
700	 0,585058562832139 
701	 0,591789383592148 
702	 0,598250247530679 
703	 0,604357541112698 
704	 0,610388390149182 
705	 0,616037271293523 
706	 0,62115392584168 
707	 0,626200114071383 
708	 0,631049615766353 
709	 0,635327881559642 
710	 0,639453048302167 
711	 0,643463352948245 
712	 0,6469650580336 
713	 0,650020861514258 
714	 0,652701285865292 
715	 0,654986709901803 
716	 0,657190091262138 
717	 0,660116195258822 
718	 0,662736476184338 
719	 0,664641843493656 
720	 0,6663765805771 
721	 0,667852480645259 
722	 0,668899395757109 
723	 0,670347004261907 
724	 0,672021724747119 
725	 0,672579797543193 
726	 0,673108021090319 
727	 0,674278057594475 
728	 0,675688489073076 
729	 0,676899407614856 
730	 0,677246181751818 
731	 0,677470731845693 
732	 0,677881686043986 
733	 0,678643588612128 
734	 0,679472906810477 
735	 0,680088011229506 
736	 0,68024987029822 
737	 0,680268072211258 
738	 0,681038621194435 
739	 0,68169326829251 
740	 0,681938442079801 
741	 0,682153409926946 
742	 0,682335664809228 
743	 0,682449961823179 
744	 0,682455255614198 
745	 0,682481107391838 
746	 0,683027211805373 
747	 0,683087884352454 
748	 0,682338034175284 
749	 0,682662789462213 
750	 0,683385947107284 
751	 0,683128911658926 
752	 0,682855146009878 
753	 0,682846420465325 
754	 0,683156153304458 
755	 0,683380740995049 
756	 0,683240349587071 
757	 0,683047833141958 
758	 0,68300663270552 
759	 0,683453709409038 
760	 0,68359292736367 
761	 0,683321593174129 
762	 0,683572090037422 
763	 0,683777450744249 
764	 0,683398275783826 
765	 0,68311726886841 
766	 0,683125279849099 
767	 0,683604181151568 
768	 0,683817471097184 
769	 0,683591108328785 
770	 0,683894015923349 
771	 0,684340796001257 
772	 0,684384280876864 
773	 0,684076185287807 
774	 0,683608674494208 
775	 0,68344893741751 
776	 0,683693949336566 
777	 0,684232903552941 
778	 0,683890509185416 
779	 0,683262131053161 
780	 0,683406460218599 
781	 0,683609683325422 
782	 0,683735025275465 
783	 0,68399996159282 
784	 0,684151831642467 
785	 0,684033981265567 
786	 0,683849747043687 
787	 0,683653560258947 
788	 0,683478167034198 
789	 0,683298418131208 
790	 0,683191523563827 
791	 0,683545353690934 
792	 0,683634469944583 
793	 0,682973722743278 
794	 0,682928431658506 
795	 0,683354525504151 
796	 0,683464742461977 
797	 0,68337700221377 
798	 0,683208327937721 
799	 0,683478923963361 
800	 0,683652682056927 
801	 0,683241017141708 
802	 0,682938583813331 
803	 0,682914162947086 
804	 0,683282959626016 
805	 0,68342824449619 
806	 0,683221014959649 
807	 0,683423768666076 
808	 0,683725878721413 
809	 0,683740777759176 
810	 0,683582087899875 
811	 0,683344624319448 
812	 0,683214821498852 
813	 0,683120325014614 
814	 0,683066240648418 
815	 0,683248412577561 
816	 0,683394200646165 
817	 0,683175776174695 
818	 0,682905269005323 
819	 0,682800665185928 
820	 0,683264113319348 
821	 0,683771847303335 
822	 0,6840097483464 
823	 0,683914381559765 
824	 0,683490348063373 
825	 0,682781281256737 
826	 0,683572735989977 
827	 0,6852838173214 
828	 0,684731730095402 
829	 0,683755250714888 
830	 0,683383523810559 
831	 0,683600728605533 
832	 0,68410176449874 
833	 0,684449514787431 
834	 0,684398733329919 
835	 0,684035015781476 
836	 0,683871248857136 
837	 0,683860531322988 
838	 0,683949776411068 
839	 0,683876859326062 
840	 0,683766668608362 
841	 0,68384014464841 
842	 0,683606522390835 
843	 0,683167020534138 
844	 0,683239214934563 
845	 0,683448962163612 
846	 0,683587918283956 
847	 0,683773342133562 
848	 0,683871860071369 
849	 0,683698333416678 
850	 0,683324394517987 
851	 0,682920524203998 
852	 0,683014574970803 
853	 0,68269356103722 
854	 0,681718087803155 
855	 0,681998997966001 
856	 0,682954588798818 
857	 0,683498166687352 
858	 0,683198429890425 
859	 0,68245426991985 
860	 0,683031984276636 
861	 0,683279616646644 
862	 0,682585982591395 
863	 0,682931606521191 
864	 0,683734755909861 
865	 0,683977728182209 
866	 0,683852992982507 
867	 0,683626221601635 
868	 0,684061666487121 
869	 0,684204960298877 
870	 0,683739427500243 
871	 0,683682904920485 
872	 0,684047466946538 
873	 0,68468535857679 
874	 0,684339732808456 
875	 0,683395225815046 
876	 0,683779005928487 
877	 0,684402816177466 
878	 0,684650118105198 
879	 0,68380069046581 
880	 0,682896694373336 
881	 0,683091379485592 
882	 0,683404213019217 
883	 0,683488606058255 
884	 0,6828838838187 
885	 0,682871281786329 
886	 0,683605342119198 
887	 0,683191214502243 
888	 0,682696337875269 
889	 0,683171558798704 
890	 0,683724142811051 
891	 0,683868854489349 
892	 0,682872684252488 
893	 0,682335057058647 
894	 0,682549897495444 
895	 0,682109021248863 
896	 0,681850702339093 
897	 0,682368582835797 
898	 0,682373721178016 
899	 0,682416533576009 
900	 0,68388047172684 
901	 0,684186228950721 
902	 0,683131223921195 
903	 0,682919863478613 
904	 0,683112311086311 
905	 0,683300994910912 
906	 0,682550967727811 
907	 0,681714458754001 
908	 0,682133521994287 
909	 0,683012629201324 
910	 0,683783418880537 
911	 0,683298183265801 
912	 0,683149238203011 
913	 0,683900607881732 
914	 0,684019955095635 
915	 0,683654231344422 
916	 0,683166762125009 
917	 0,683420226624886 
918	 0,6841044429566 
919	 0,684009780450604 
920	 0,683413210811599 
921	 0,682773565441509 
922	 0,683790515504415 
923	 0,684908104309823 
924	 0,684856426751197 
925	 0,685389507540568 
926	 0,685590865446624 
927	 0,683318099903249 
928	 0,682336119916254 
929	 0,68320072804909 
930	 0,683515103176272 
931	 0,683972173089665 
932	 0,684800921292033 
933	 0,68508801348894 
934	 0,684419619387669 
935	 0,682516671635357 
936	 0,682339211158065 
937	 0,683554486598707 
938	 0,683195832121356 
939	 0,682649635920565 
940	 0,682513577656397 
941	 0,68328099821611 
942	 0,68380354731173 
943	 0,683108400718096 
944	 0,682259923214072 
945	 0,682067706082617 
946	 0,683737756069652 
947	 0,683400675415036 
948	 0,681159383662457 
949	 0,68184408332776 
950	 0,682599624446539 
951	 0,681847748492639 
952	 0,680773526132641 
953	 0,679849934685497 
954	 0,67949346164379 
955	 0,679225405097254 
956	 0,679024333848934 
957	 0,679032065322825 
958	 0,679716719151555 
959	 0,680787125833204 
960	 0,680302574531265 
961	 0,679328434217991 
962	 0,678886461584092 
963	 0,679778498746562 
964	 0,681181554909263 
965	 0,681693845467827 
966	 0,680044363104534 
967	 0,677809392342043 
968	 0,681199745499074 
969	 0,682590194074575 
970	 0,679454431613934 
971	 0,67713716596164 
972	 0,67702572440382 
973	 0,67966640379687 
974	 0,680683174410387 
975	 0,679932793331934 
976	 0,678653481807661 
977	 0,678268545462648 
978	 0,679003471673924 
979	 0,679679849198695 
980	 0,681072489765207 
981	 0,683019127837472 
982	 0,682771885174397 
983	 0,68152382666303 
984	 0,68077334901991 
985	 0,680530215979612 
986	 0,680909607772863 
987	 0,682118403709313 
988	 0,681277137013417 
989	 0,67909861817716 
990	 0,681413227665456 
991	 0,683224344150574 
992	 0,682247175735293 
993	 0,681745822811359 
994	 0,682673571107298 
995	 0,685425758347109 
996	 0,685936075216577 
997	 0,685106199381725 
998	 0,686310613442629 
999	 0,685485819365167 
1000	 0,683039044754292 
1001	 0,684240444172579 
1002	 0,686748593459559 
1003	 0,689012233171233 
1004	 0,689622191871776 
1005	 0,689696810818329 
1006	 0,690306329513551 
1007	 0,689146975862612 
1008	 0,687024729942997 
1009	 0,685910349756305 
1010	 0,68634694067907 
1011	 0,687959852851736 
1012	 0,689045515737343 
1013	 0,688935169059543 
1014	 0,688104755905632 
1015	 0,691116249979116 
1016	 0,692963979472053 
1017	 0,690052357260565 
1018	 0,691379776336548 
1019	 0,69433469095625 
1020	 0,693230781852375 
1021	 0,692827315738609 
1022	 0,69317274880908 
1023	 0,691102387219751 
1024	 0,690287172276855 
1025	 0,691596153675824 
1026	 0,693013842575381 
1027	 0,693244536443419 
1028	 0,691877450206738 
1029	 0,692093532496612 
1030	 0,692556077850514 
1031	 0,691525743206908 
1032	 0,692698182552319 
1033	 0,696025747947595 
1034	 0,699919360962681 
1035	 0,70177399284988 
1036	 0,700649581854715 
1037	 0,696206227840826 
1038	 0,692971252682253 
1039	 0,693239054882905 
1040	 0,695726389393328 
1041	 0,697387482556101 
1042	 0,696399017923587 
1043	 0,699754234154056 
1044	 0,703113254580155 
1045	 0,69971419442757 
1046	 0,698166572829843 
1047	 0,698234677492818 
1048	 0,694617916083747 
1049	 0,692831488632165 
1050	 0,69533065273938 
1051	 0,706079171450295 
1052	 0,708236125226991 
1053	 0,697568040992228 
1054	 0,700439404825123 
1055	 0,706878860057756 
1056	 0,707004927246867 
1057	 0,707707256532535 
1058	 0,707819393648646 
1059	 0,704996230932955 
1060	 0,706126264059843 
1061	 0,708726407403623 
1062	 0,703161496014468 
1063	 0,704731229092836 
1064	 0,71264937777052 
1065	 0,705818953668546 
1066	 0,705232193043891 
1067	 0,715665762365731 
1068	 0,709154653133469 
1069	 0,69923236052352 
1070	 0,696945840888876 
1071	 0,702260710425223 
1072	 0,70298701585932 
1073	 0,687254947196213 
1074	 0,699007958819046 
1075	 0,718295789127683 
