Wavelength	PENFOUL00563.asd
325	 8,68410878468992E-02 
326	 0,140124225247656 
327	 0,18064105285502 
328	 0,156490591418873 
329	 0,135129388112789 
330	 0,185916412272164 
331	 0,287378836750415 
332	 0,259226751577315 
333	 0,157391770267429 
334	 0,185360502741244 
335	 0,201626053508989 
336	 0,169866800904507 
337	 0,140160282461392 
338	 0,115937163562275 
339	 0,106130122575303 
340	 0,150369165761959 
341	 0,201821422098713 
342	 0,168819438767303 
343	 0,128507787517449 
344	 0,106503413291565 
345	 9,05734451156063E-02 
346	 0,094164824161288 
347	 0,123099165268412 
348	 0,129079273851637 
349	 0,117643183352414 
350	 0,118976528082828 
351	 0,117210107070628 
352	 0,104011185268079 
353	 7,06654305318685E-02 
354	 5,08615216855502E-02 
355	 6,93979766172943E-02 
356	 7,42383974279985E-02 
357	 6,27508988243598E-02 
358	 6,26257368354413E-02 
359	 6,64374561251548E-02 
360	 6,91727110747991E-02 
361	 5,70601620030784E-02 
362	 4,54665507096025E-02 
363	 5,98258412695583E-02 
364	 4,20707496024483E-02 
365	 2,68423182655766E-03 
366	 2,98640139802592E-02 
367	 6,98874204701845E-02 
368	 8,47396967623359E-02 
369	 5,23213049925853E-02 
370	 1,33089355068683E-02 
371	 4,67717331123853E-02 
372	 5,54164849542085E-02 
373	 3,01751567004602E-02 
374	 6,40783447260006E-02 
375	 8,37716017871064E-02 
376	 4,40922410405986E-02 
377	 3,77186888923519E-02 
378	 5,42295316767288E-02 
379	 3,34010911425711E-02 
380	 3,50721972334872E-02 
381	 6,62701480610435E-02 
382	 6,02353171795699E-02 
383	 4,77210683116399E-02 
384	 5,73212296651037E-02 
385	 4,42236843207964E-02 
386	 1,80792395146244E-02 
387	 2,23083283176128E-02 
388	 3,40968655697971E-02 
389	 0,044154419273329 
390	 5,82339115794561E-02 
391	 6,41280006677954E-02 
392	 4,74600164763366E-02 
393	 3,66900711505452E-02 
394	 3,51628858378639E-02 
395	 3,20231502146247E-02 
396	 3,06280594016855E-02 
397	 3,17927683322597E-02 
398	 2,79289182637364E-02 
399	 2,72953255991094E-02 
400	 4,37746900477071E-02 
401	 4,40973806140622E-02 
402	 2,74910835125701E-02 
403	 2,37858449951009E-02 
404	 2,83218787615853E-02 
405	 3,56216753154995E-02 
406	 3,21131545237746E-02 
407	 2,36645566797743E-02 
408	 2,67035843582003E-02 
409	 2,98290717331388E-02 
410	 3,02056566998569E-02 
411	 3,14605605726065E-02 
412	 3,12097268140295E-02 
413	 2,73024308571875E-02 
414	 2,20129063257224E-02 
415	 1,90454821133518E-02 
416	 2,75342495073437E-02 
417	 3,16474306436315E-02 
418	 2,72116915587155E-02 
419	 3,14079647498319E-02 
420	 0,037352727969626 
421	 3,51555602260621E-02 
422	 2,98430810600787E-02 
423	 2,45042339085185E-02 
424	 2,48452514214544E-02 
425	 2,62031203251308E-02 
426	 2,56948552209973E-02 
427	 2,48993435884811E-02 
428	 2,35746341722069E-02 
429	 2,08424838481469E-02 
430	 1,88612356888055E-02 
431	 1,89054704938339E-02 
432	 2,32230469202333E-02 
433	 2,69067620772149E-02 
434	 2,58411686375027E-02 
435	 2,26899747129226E-02 
436	 2,04067296572722E-02 
437	 2,57559523712208E-02 
438	 2,67757346351132E-02 
439	 0,020747577440406 
440	 2,30107064599246E-02 
441	 2,74052150104955E-02 
442	 2,45754208476644E-02 
443	 2,24714812767443E-02 
444	 2,25624778748404E-02 
445	 2,30230785563193E-02 
446	 2,47329099572236E-02 
447	 2,73142501273465E-02 
448	 2,32488990736326E-02 
449	 1,68247797437714E-02 
450	 1,78444172411317E-02 
451	 2,01472152529749E-02 
452	 2,17008902645196E-02 
453	 2,22296787080779E-02 
454	 2,26933830577988E-02 
455	 0,023869193008518 
456	 2,32927636924019E-02 
457	 2,09020397001371E-02 
458	 1,70925297723224E-02 
459	 1,65596117864788E-02 
460	 2,03668837453697E-02 
461	 0,020556689987883 
462	 1,98853359044439E-02 
463	 2,29979264723071E-02 
464	 2,52090416271215E-02 
465	 2,53836328748239E-02 
466	 2,36407960071903E-02 
467	 2,28822114919425E-02 
468	 2,47094241215515E-02 
469	 2,52696586037418E-02 
470	 2,41031119961061E-02 
471	 0,021162556313347 
472	 2,05434365577914E-02 
473	 2,28525355383528E-02 
474	 2,37380201007955E-02 
475	 2,35889062766033E-02 
476	 0,023028637193733 
477	 2,12343760985953E-02 
478	 1,94198259058891E-02 
479	 2,13607014143714E-02 
480	 2,22305514806324E-02 
481	 2,03984215301699E-02 
482	 2,18731535297185E-02 
483	 2,34370324909027E-02 
484	 1,93925250512258E-02 
485	 0,019153406746161 
486	 2,31280909626267E-02 
487	 2,28730906639345E-02 
488	 2,15555550732001E-02 
489	 2,16180522425925E-02 
490	 2,12147700560643E-02 
491	 2,08961355236336E-02 
492	 2,28085980121185E-02 
493	 2,30052302794097E-02 
494	 2,07240135522265E-02 
495	 2,01943104176576E-02 
496	 2,00290030124183E-02 
497	 1,83474671415582E-02 
498	 1,87753093359305E-02 
499	 2,09480216018941E-02 
500	 2,13417253890398E-02 
501	 2,13056492964048E-02 
502	 2,14662679016423E-02 
503	 2,06610305820207E-02 
504	 1,94550533547637E-02 
505	 1,89384001797835E-02 
506	 0,019218836619401 
507	 2,01983093771122E-02 
508	 2,15645053938534E-02 
509	 2,13865897843411E-02 
510	 0,018330380817756 
511	 1,90427179683867E-02 
512	 2,23285858620144E-02 
513	 2,18268064947429E-02 
514	 2,06144206036642E-02 
515	 2,00854724881329E-02 
516	 2,04735218936094E-02 
517	 2,10866520196811E-02 
518	 2,09168158311198E-02 
519	 0,020824077556525 
520	 2,10072406300939E-02 
521	 2,14281134078842E-02 
522	 2,15618404005583E-02 
523	 2,11089210133007E-02 
524	 2,11521827223004E-02 
525	 2,15228274239172E-02 
526	 2,15038314703362E-02 
527	 0,021083737892024 
528	 2,05010004942544E-02 
529	 2,12036212618628E-02 
530	 0,021746737266731 
531	 2,04196314007519E-02 
532	 0,019838750187764 
533	 2,01942914985461E-02 
534	 2,00900245921774E-02 
535	 1,98625571714102E-02 
536	 1,96977127907067E-02 
537	 1,94052582870259E-02 
538	 1,94174056289259E-02 
539	 0,0206506415231 
540	 2,12035698404243E-02 
541	 2,06137456612055E-02 
542	 1,97939974372137E-02 
543	 0,019369234478304 
544	 1,98634267604283E-02 
545	 2,06651406336782E-02 
546	 2,11435356526579E-02 
547	 1,99267438146885E-02 
548	 1,89878031450006E-02 
549	 1,92857080975648E-02 
550	 1,99698181733466E-02 
551	 2,05786267665661E-02 
552	 2,06085905150803E-02 
553	 2,01040689569278E-02 
554	 1,93215779401082E-02 
555	 1,90588116648138E-02 
556	 1,93573670675888E-02 
557	 2,01671958424533E-02 
558	 2,07899687283372E-02 
559	 2,09507477978977E-02 
560	 2,02190546681703E-02 
561	 2,01745652401057E-02 
562	 2,11780757444179E-02 
563	 2,11103224178182E-02 
564	 2,02594266910501E-02 
565	 1,92640480435566E-02 
566	 1,87765367603366E-02 
567	 1,90022302785533E-02 
568	 1,98681873625512E-02 
569	 2,06260818810109E-02 
570	 2,07349235653964E-02 
571	 2,04273885938167E-02 
572	 2,01854666733293E-02 
573	 2,11188947022926E-02 
574	 2,08294178243702E-02 
575	 1,91438050947111E-02 
576	 1,99715158813162E-02 
577	 2,14948628551336E-02 
578	 2,13934051328138E-02 
579	 2,13861351020124E-02 
580	 2,16887814723056E-02 
581	 2,18551928873077E-02 
582	 2,16371973484636E-02 
583	 0,021087145062512 
584	 2,18935197669039E-02 
585	 0,023038705263173 
586	 2,23185474637032E-02 
587	 2,21819375049563E-02 
588	 2,29364105698718E-02 
589	 2,23133074385448E-02 
590	 2,20310121728039E-02 
591	 2,36115917422473E-02 
592	 2,36157063087287E-02 
593	 2,23233719670754E-02 
594	 2,23424671919418E-02 
595	 2,27419855492083E-02 
596	 0,023086932989334 
597	 2,32511637598076E-02 
598	 0,023091830303714 
599	 2,24160134401671E-02 
600	 2,24228057479497E-02 
601	 2,30640718323192E-02 
602	 2,26665651767786E-02 
603	 2,23121929450644E-02 
604	 2,27757258128034E-02 
605	 2,23730287329145E-02 
606	 2,15095973124942E-02 
607	 2,19181600664838E-02 
608	 2,19768853245652E-02 
609	 0,021425153066382 
610	 2,25356897162122E-02 
611	 2,36096928229805E-02 
612	 2,23830051500965E-02 
613	 2,11804301800575E-02 
614	 0,020693164073807 
615	 2,10795044925155E-02 
616	 0,021625441566358 
617	 2,18568014693717E-02 
618	 0,02221832519386 
619	 2,24306778778513E-02 
620	 2,18177722306931E-02 
621	 2,13375352976921E-02 
622	 2,12549046214815E-02 
623	 2,10807592818375E-02 
624	 0,020893137139208 
625	 2,08087614436252E-02 
626	 2,11242539268092E-02 
627	 0,021610274796925 
628	 2,14730449453172E-02 
629	 2,10777754057112E-02 
630	 2,07754549523175E-02 
631	 2,16367508953588E-02 
632	 2,27773225959296E-02 
633	 2,26005535364095E-02 
634	 0,022227289352931 
635	 2,20652637697283E-02 
636	 2,23193708424133E-02 
637	 2,27604070322049E-02 
638	 2,31718353289773E-02 
639	 2,35552205615341E-02 
640	 2,37892308817302E-02 
641	 2,35355176338341E-02 
642	 2,35609546912332E-02 
643	 2,40862380364482E-02 
644	 2,43552859289903E-02 
645	 2,43208901850156E-02 
646	 0,024021176697496 
647	 2,38845149054063E-02 
648	 2,39371893437045E-02 
649	 0,023773363480742 
650	 2,37623996971355E-02 
651	 2,40541522243148E-02 
652	 2,36064781168944E-02 
653	 2,28610982897751E-02 
654	 2,30007637826523E-02 
655	 0,023360669177763 
656	 2,35502083129591E-02 
657	 2,27532951033232E-02 
658	 2,20861773192569E-02 
659	 2,26869135633847E-02 
660	 2,26295115088698E-02 
661	 0,02183807420245 
662	 2,12274783253097E-02 
663	 2,12005514861345E-02 
664	 2,18261236440398E-02 
665	 2,19259141564748E-02 
666	 2,13292954515329E-02 
667	 1,99679179641908E-02 
668	 1,94449187307984E-02 
669	 1,99545182916409E-02 
670	 2,01307705675479E-02 
671	 2,02175303005548E-02 
672	 0,020404979496077 
673	 2,03163106487955E-02 
674	 2,00509196841108E-02 
675	 1,99178696739228E-02 
676	 2,01554478148992E-02 
677	 2,07174089702086E-02 
678	 2,07552366267902E-02 
679	 2,05922064316924E-02 
680	 2,06942247387449E-02 
681	 2,05978332795747E-02 
682	 2,04194698633889E-02 
683	 2,08891644117997E-02 
684	 2,11803289966915E-02 
685	 2,08777078467226E-02 
686	 2,08067544417782E-02 
687	 2,11772562689603E-02 
688	 0,022191798211287 
689	 2,27851275794466E-02 
690	 2,28391037492097E-02 
691	 2,34698032186711E-02 
692	 0,024299856644858 
693	 2,50062520471305E-02 
694	 2,65276327671613E-02 
695	 2,86539860660286E-02 
696	 3,03814144822439E-02 
697	 3,24015562343467E-02 
698	 3,50000439921588E-02 
699	 3,80341798893339E-02 
700	 4,15780497229478E-02 
701	 4,57358152904913E-02 
702	 4,97243054300638E-02 
703	 5,35571234952857E-02 
704	 5,80155910220502E-02 
705	 6,28620793380519E-02 
706	 6,78963803263662E-02 
707	 0,072814213001399 
708	 7,75653999119156E-02 
709	 8,21778677230636E-02 
710	 8,67286708096708E-02 
711	 9,11858823690563E-02 
712	 9,52977997868825E-02 
713	 9,93291622019573E-02 
714	 0,103491554687902 
715	 0,107233653045103 
716	 0,110641497841208 
717	 0,114286035628836 
718	 0,117462399050128 
719	 0,120061065536159 
720	 0,123376256034747 
721	 0,126653439583211 
722	 0,12880439485071 
723	 0,130885703678083 
724	 0,133135585057982 
725	 0,135489185636008 
726	 0,137342258665795 
727	 0,138465860894192 
728	 0,140312009119488 
729	 0,142346030080165 
730	 0,143259591103523 
731	 0,144005318167709 
732	 0,14494531898939 
733	 0,146321023714945 
734	 0,147549643759604 
735	 0,148142057372591 
736	 0,14872243047666 
737	 0,14944336579356 
738	 0,15036485895764 
739	 0,151355256285724 
740	 0,15228464865913 
741	 0,152894942165946 
742	 0,153137841853384 
743	 0,153009991501211 
744	 0,153499871039069 
745	 0,154515427180027 
746	 0,155047795871281 
747	 0,155303503529129 
748	 0,155450678317734 
749	 0,155993395829384 
750	 0,156613310161274 
751	 0,156723259542563 
752	 0,156905015323717 
753	 0,157261744734484 
754	 0,157568354239444 
755	 0,157737932449433 
756	 0,157729818021201 
757	 0,157724003902986 
758	 0,157937767446718 
759	 0,158788099745882 
760	 0,159236539225234 
761	 0,159103557005279 
762	 0,159383715243285 
763	 0,15974017399131 
764	 0,159817990603591 
765	 0,159827040180939 
766	 0,159845873693569 
767	 0,159927271575759 
768	 0,160275325390629 
769	 0,160825838904579 
770	 0,160691532953173 
771	 0,160518677512657 
772	 0,161130062802652 
773	 0,161402224476436 
774	 0,161249837753228 
775	 0,161160238097714 
776	 0,161447137395626 
777	 0,162149723743351 
778	 0,162186371282411 
779	 0,162009967527268 
780	 0,16246921267574 
781	 0,162637919576863 
782	 0,162401920306602 
783	 0,162175163364177 
784	 0,16233582023558 
785	 0,163055070617962 
786	 0,163542837212789 
787	 0,163669751086052 
788	 0,16342654440779 
789	 0,16328401324769 
790	 0,163414670222516 
791	 0,16382035996199 
792	 0,16399264189151 
793	 0,163605647745595 
794	 0,163781627781192 
795	 0,164207699453262 
796	 0,163741310340819 
797	 0,163778665661965 
798	 0,164525751011649 
799	 0,164617425054986 
800	 0,164439840768903 
801	 0,164430662923371 
802	 0,164573683443668 
803	 0,164896482457673 
804	 0,165510201329267 
805	 0,165790087185553 
806	 0,165632446887285 
807	 0,166001462761537 
808	 0,166257308064641 
809	 0,165696193042356 
810	 0,165431540363878 
811	 0,165653503760418 
812	 0,166229417703815 
813	 0,166637006567647 
814	 0,166632533818599 
815	 0,166425557396664 
816	 0,166292388641664 
817	 0,166525982219216 
818	 0,166845717214603 
819	 0,167143338082676 
820	 0,167340064688474 
821	 0,167399863848498 
822	 0,167378630839374 
823	 0,167759592412547 
824	 0,168134745959949 
825	 0,167935744808775 
826	 0,168249884475752 
827	 0,168939374065879 
828	 0,168718644895812 
829	 0,168482327115156 
830	 0,168629115267369 
831	 0,168469973896282 
832	 0,168317507277386 
833	 0,168678445586876 
834	 0,16852885149309 
835	 0,168010863861638 
836	 0,168447639458988 
837	 0,168933853800123 
838	 0,168994793914545 
839	 0,169004761058491 
840	 0,169113951022729 
841	 0,169474610144554 
842	 0,16948959928736 
843	 0,169263166328674 
844	 0,169652647700431 
845	 0,17014341268553 
846	 0,170414012243722 
847	 0,170402874035795 
848	 0,170204019996649 
849	 0,169966471199915 
850	 0,169896164358111 
851	 0,170041180933857 
852	 0,170385969940836 
853	 0,170444243225344 
854	 0,17005607635865 
855	 0,170170515390684 
856	 0,170362529176018 
857	 0,169917990024591 
858	 0,169760335443576 
859	 0,170007731363608 
860	 0,170257628997735 
861	 0,170587842558098 
862	 0,170947287471672 
863	 0,170833270009435 
864	 0,170690581689678 
865	 0,171146312697886 
866	 0,17155692584402 
867	 0,171759375015672 
868	 0,171805818318467 
869	 0,171581879932295 
870	 0,171151367749254 
871	 0,171158834880235 
872	 0,171373591542558 
873	 0,17144598223296 
874	 0,171663800698148 
875	 0,172087041882653 
876	 0,172824591629954 
877	 0,173097654030942 
878	 0,172635209532612 
879	 0,172041149157752 
880	 0,171658782128689 
881	 0,171780657599159 
882	 0,171909201416033 
883	 0,172074846198431 
884	 0,172678649627451 
885	 0,173171581821645 
886	 0,173418787458656 
887	 0,174016206638245 
888	 0,174126452801592 
889	 0,173076423514999 
890	 0,172721230024095 
891	 0,17316380016441 
892	 0,17389458151517 
893	 0,174028763964614 
894	 0,173458456753691 
895	 0,173267351446123 
896	 0,173428096242668 
897	 0,173841452956019 
898	 0,174038707822543 
899	 0,174111189313832 
900	 0,174400377217792 
901	 0,174225793185436 
902	 0,173609220257203 
903	 0,173273067419787 
904	 0,173454742531155 
905	 0,174184524011575 
906	 0,17455404116705 
907	 0,174584033134952 
908	 0,174494424807457 
909	 0,174616467835626 
910	 0,174764312233383 
911	 0,173889653377157 
912	 0,173869173244512 
913	 0,175186712900792 
914	 0,174914770933867 
915	 0,174360301237392 
916	 0,175182299916633 
917	 0,175717787170315 
918	 0,175676570364996 
919	 0,175178874129923 
920	 0,174700545889316 
921	 0,174461008145592 
922	 0,174480356311337 
923	 0,174273168566795 
924	 0,173503107587266 
925	 0,172906630660329 
926	 0,172904706286992 
927	 0,174054898332218 
928	 0,173912231401772 
929	 0,172469772434445 
930	 0,172511957154017 
931	 0,172874178801908 
932	 0,172905978204642 
933	 0,17325688369789 
934	 0,173285384700804 
935	 0,172171238815645 
936	 0,171540795629403 
937	 0,171627014167363 
938	 0,171993282782944 
939	 0,172272996075699 
940	 0,172015399725725 
941	 0,169983299223171 
942	 0,168287195902786 
943	 0,168699184042806 
944	 0,16870852658482 
945	 0,168098225828109 
946	 0,167221804305484 
947	 0,167439619824556 
948	 0,168498267768048 
949	 0,168126515946376 
950	 0,166450566691439 
951	 0,164008255954025 
952	 0,1635667017169 
953	 0,164047254022747 
954	 0,163736104635421 
955	 0,162226210911057 
956	 0,160327626108328 
957	 0,160358930429041 
958	 0,16072829367682 
959	 0,160868121235582 
960	 0,161118352818051 
961	 0,160048748497242 
962	 0,157217964244577 
963	 0,158414828011571 
964	 0,160968897987713 
965	 0,159662093941614 
966	 0,157513604326649 
967	 0,156066808186899 
968	 0,157832727123678 
969	 0,158833209512201 
970	 0,157532805581388 
971	 0,155966881936506 
972	 0,154935036955997 
973	 0,155131174485716 
974	 0,157378826463182 
975	 0,159604397579042 
976	 0,158049786380871 
977	 0,156906588935527 
978	 0,157204414541014 
979	 0,157993354018456 
980	 0,159322431965315 
981	 0,160806037874892 
982	 0,160662374346392 
983	 0,159860418559745 
984	 0,159522527237094 
985	 0,158894014462127 
986	 0,158463199587673 
987	 0,159318721818722 
988	 0,160563793769166 
989	 0,161372355749928 
990	 0,159937171491869 
991	 0,158782872302954 
992	 0,159287728254739 
993	 0,160622397305344 
994	 0,162237875323876 
995	 0,163493634433264 
996	 0,16308159252916 
997	 0,162002051219795 
998	 0,16263902597914 
999	 0,1626851527208 
1000	 0,162479173311801 
1001	 0,165807183776173 
1002	 0,167264818081413 
1003	 0,165242936073184 
1004	 0,167755783875532 
1005	 0,170306939796424 
1006	 0,168207582263278 
1007	 0,165321212468517 
1008	 0,163622234475191 
1009	 0,165183073208494 
1010	 0,167162970924609 
1011	 0,16812948842761 
1012	 0,166144244947452 
1013	 0,166010630090377 
1014	 0,16919229408301 
1015	 0,171193394132989 
1016	 0,171606577919927 
1017	 0,17072493312624 
1018	 0,172545777861673 
1019	 0,175070096157317 
1020	 0,174533542009114 
1021	 0,171734935744425 
1022	 0,168469731001518 
1023	 0,169039146438757 
1024	 0,169867601936727 
1025	 0,170999002904127 
1026	 0,178597410335714 
1027	 0,183208317942604 
1028	 0,179732382651454 
1029	 0,178388845849307 
1030	 0,17846948647549 
1031	 0,178044625409554 
1032	 0,180750287919318 
1033	 0,184879529465271 
1034	 0,185732262500032 
1035	 0,185117274616487 
1036	 0,183363593546803 
1037	 0,179671393817572 
1038	 0,177619472416666 
1039	 0,179430312541071 
1040	 0,18714623748405 
1041	 0,19073645906613 
1042	 0,183748507268044 
1043	 0,185549184739306 
1044	 0,190233110475274 
1045	 0,186593719065115 
1046	 0,187319560974906 
1047	 0,192116143645913 
1048	 0,193643666387891 
1049	 0,193297685881897 
1050	 0,191039001921564 
1051	 0,18581148010263 
1052	 0,181290958721669 
1053	 0,179602652931555 
1054	 0,179878584481304 
1055	 0,18247456841129 
1056	 0,187211574468677 
1057	 0,190835443817201 
1058	 0,191807330226742 
1059	 0,189318944365614 
1060	 0,189956333129765 
1061	 0,192297879312072 
1062	 0,189331703415465 
1063	 0,187303555459875 
1064	 0,189405416603444 
1065	 0,201166500046841 
1066	 0,204549259019977 
1067	 0,194035292181239 
1068	 0,189284077259575 
1069	 0,186090098512225 
1070	 0,182011666248962 
1071	 0,190895434523805 
1072	 0,196993505398223 
1073	 0,181850550227807 
1074	 0,188239298020318 
1075	 0,206253435627015 
