Wavelength	PENFOUL00538.asd
325	 0,112315601251676 
326	 0,18130198124702 
327	 0,224621200634786 
328	 0,223672396802803 
329	 0,34200860869117 
330	 0,397057591834731 
331	 0,275617814138768 
332	 0,210708817613974 
333	 0,176068167379946 
334	 0,203572317512902 
335	 0,173865688146761 
336	 8,00512980319774E-02 
337	 0,066914832218652 
338	 0,090098746281097 
339	 9,90800065156307E-02 
340	 0,129018065622461 
341	 0,157108296765761 
342	 0,132945324511275 
343	 0,105115116976448 
344	 8,94891222379676E-02 
345	 7,84385767030053E-02 
346	 6,65385544994636E-02 
347	 5,02654045440635E-02 
348	 4,38889200318248E-02 
349	 4,66289383000847E-02 
350	 5,92347680602306E-02 
351	 5,12649776685309E-02 
352	 1,76142925255323E-02 
353	 1,85932521582781E-02 
354	 3,49851745076219E-02 
355	 4,20100056759678E-02 
356	 5,66132980093874E-02 
357	 7,25952312680592E-02 
358	 6,36795921682178E-02 
359	 4,69094906081423E-02 
360	 3,07237559444738E-02 
361	 2,25465411494676E-02 
362	 2,61295998648489E-02 
363	 4,37396665671389E-02 
364	 5,12438961900983E-02 
365	 4,74108982644546E-02 
366	 4,59021349916882E-02 
367	 4,95985037432153E-02 
368	 5,69726518275185E-02 
369	 3,80622837370242E-02 
370	 2,02671443753206E-02 
371	 6,18541433554927E-02 
372	 5,99476668120366E-02 
373	 1,11085256317619E-02 
374	 4,14950861930079E-02 
375	 7,60870090942628E-02 
376	 6,52196224940962E-02 
377	 5,01266504842829E-02 
378	 3,89210985641014E-02 
379	 0,026110591313049 
380	 0,026757319054269 
381	 4,28241718261728E-02 
382	 5,59845792609573E-02 
383	 5,89835843038796E-02 
384	 4,72478087484057E-02 
385	 3,24821995753623E-02 
386	 2,06584822301843E-02 
387	 0,014820499683784 
388	 2,85126437613699E-02 
389	 5,73998473210487E-02 
390	 5,43448900134621E-02 
391	 3,85964879976357E-02 
392	 3,72948743442607E-02 
393	 3,28594153907337E-02 
394	 2,54037326474301E-02 
395	 2,43646131816756E-02 
396	 2,76249689419157E-02 
397	 3,28427092080196E-02 
398	 3,25146867439747E-02 
399	 3,02582338979553E-02 
400	 3,33072791117699E-02 
401	 2,36652701968166E-02 
402	 6,58278551774331E-03 
403	 1,91592105595935E-02 
404	 3,35792162057398E-02 
405	 3,16573136778453E-02 
406	 2,45631097229771E-02 
407	 1,94879543620241E-02 
408	 2,87752970243374E-02 
409	 3,38671673849905E-02 
410	 3,09324539375712E-02 
411	 2,99325971073752E-02 
412	 3,01959240689636E-02 
413	 3,03427443871292E-02 
414	 2,29351655479169E-02 
415	 1,29901202467331E-02 
416	 0,016654372035538 
417	 2,29999317403211E-02 
418	 2,70641415086379E-02 
419	 0,029149717922246 
420	 2,87924529855008E-02 
421	 2,55368163464716E-02 
422	 2,22031646703138E-02 
423	 2,01845709896549E-02 
424	 2,08643519043671E-02 
425	 2,23639080217826E-02 
426	 2,33719398760135E-02 
427	 2,37646546933802E-02 
428	 2,28340817600454E-02 
429	 1,90604081050669E-02 
430	 1,80579544461063E-02 
431	 2,06450992267989E-02 
432	 2,27039399550744E-02 
433	 2,17591451095329E-02 
434	 1,64359003830505E-02 
435	 1,63469831259431E-02 
436	 2,05808666216259E-02 
437	 2,22485008404506E-02 
438	 2,32010971952952E-02 
439	 2,35083731652992E-02 
440	 1,98564693490703E-02 
441	 1,76998754827159E-02 
442	 2,40559897857795E-02 
443	 2,54641698310493E-02 
444	 2,07554720050295E-02 
445	 1,67848551113266E-02 
446	 0,017649976440245 
447	 2,43770982180407E-02 
448	 2,22424074873621E-02 
449	 0,016163719340235 
450	 1,93386628257336E-02 
451	 2,17909181707345E-02 
452	 2,11128361294421E-02 
453	 2,06288669218342E-02 
454	 2,05780595219915E-02 
455	 2,09045741737967E-02 
456	 1,86209938239526E-02 
457	 1,50886922231306E-02 
458	 1,51352103982974E-02 
459	 1,68362995673365E-02 
460	 1,89456075964209E-02 
461	 1,91214205588351E-02 
462	 1,88135402212233E-02 
463	 2,02609802716463E-02 
464	 2,06863824710955E-02 
465	 2,01045476815225E-02 
466	 2,11940724518242E-02 
467	 2,15605743905618E-02 
468	 1,98930604080309E-02 
469	 1,93227433164842E-02 
470	 1,96588948941284E-02 
471	 1,95306408694253E-02 
472	 1,97967899406666E-02 
473	 2,04870818300368E-02 
474	 2,09594073311504E-02 
475	 1,99763142552226E-02 
476	 1,66539476067519E-02 
477	 1,76393607165664E-02 
478	 2,12065797445579E-02 
479	 1,84424709729907E-02 
480	 1,69789891105515E-02 
481	 1,95913412550576E-02 
482	 1,93425507441241E-02 
483	 1,79352073353869E-02 
484	 1,89159227174371E-02 
485	 1,97228122760149E-02 
486	 0,019645416778018 
487	 1,84069529512427E-02 
488	 1,82833764308633E-02 
489	 2,06912010376118E-02 
490	 2,15077514149073E-02 
491	 2,05596852572307E-02 
492	 1,88483603593406E-02 
493	 1,81267727707986E-02 
494	 1,89113670196353E-02 
495	 1,98667240879775E-02 
496	 1,96044913758681E-02 
497	 1,67991607452428E-02 
498	 1,66055288225558E-02 
499	 1,87924560334895E-02 
500	 1,88211477981724E-02 
501	 1,83749572524106E-02 
502	 1,84433592289289E-02 
503	 1,93853140551708E-02 
504	 1,99306547462962E-02 
505	 1,76509726486749E-02 
506	 1,66866653829108E-02 
507	 1,78081228121681E-02 
508	 1,85991646081101E-02 
509	 1,81857413949375E-02 
510	 0,016129007293216 
511	 1,68578896556085E-02 
512	 0,019420108563169 
513	 1,91458780217827E-02 
514	 1,85729921832448E-02 
515	 1,87645865661162E-02 
516	 1,94306223923681E-02 
517	 1,97768388033312E-02 
518	 1,87359915869481E-02 
519	 1,81552122276202E-02 
520	 1,83846611791327E-02 
521	 1,87937620207231E-02 
522	 1,89878571087031E-02 
523	 0,018721540228265 
524	 1,85837068360421E-02 
525	 1,86117537718395E-02 
526	 1,86638082150795E-02 
527	 1,86672761407042E-02 
528	 1,86679092874338E-02 
529	 1,92067277984923E-02 
530	 1,94169776185441E-02 
531	 1,83125839667862E-02 
532	 0,017930903900825 
533	 1,84149559356947E-02 
534	 1,87158449161076E-02 
535	 1,85224015274725E-02 
536	 0,017781061963241 
537	 0,017813577097093 
538	 1,83081774335387E-02 
539	 1,83844856642483E-02 
540	 1,81997469134872E-02 
541	 1,78015444157063E-02 
542	 1,71110950528315E-02 
543	 1,71778914127006E-02 
544	 1,88729304877021E-02 
545	 1,90133971998472E-02 
546	 1,78783264238567E-02 
547	 1,82823772559686E-02 
548	 1,81215006361231E-02 
549	 1,67976233793237E-02 
550	 1,74376836934757E-02 
551	 1,89221347844347E-02 
552	 1,90556854325503E-02 
553	 0,018370669358968 
554	 1,74170722518246E-02 
555	 1,77417975683003E-02 
556	 1,87487056988493E-02 
557	 1,97818340084684E-02 
558	 1,95672272880246E-02 
559	 1,85182610785921E-02 
560	 1,82120545939338E-02 
561	 1,83163357342763E-02 
562	 1,86545967068716E-02 
563	 1,88024911236155E-02 
564	 1,84233380645563E-02 
565	 1,71443016675711E-02 
566	 1,68400704655018E-02 
567	 1,77202078815705E-02 
568	 1,86839554567109E-02 
569	 1,92316418289568E-02 
570	 1,90167461411252E-02 
571	 1,82849728132108E-02 
572	 1,78937924098591E-02 
573	 1,97345491175965E-02 
574	 2,04358281387425E-02 
575	 0,019218197203694 
576	 1,89048833509678E-02 
577	 1,94591054786174E-02 
578	 2,05676153013755E-02 
579	 2,11794690885459E-02 
580	 2,11958025729843E-02 
581	 2,13000424867625E-02 
582	 0,021214187405202 
583	 2,08796906398488E-02 
584	 2,10472194243157E-02 
585	 2,12714432952949E-02 
586	 2,05362384614424E-02 
587	 0,020495868977775 
588	 0,021304151909643 
589	 2,12148893495381E-02 
590	 2,10504497930398E-02 
591	 2,15762837018965E-02 
592	 2,12732273753567E-02 
593	 2,03220347907571E-02 
594	 1,99551642748138E-02 
595	 1,98979445444349E-02 
596	 2,00516248754725E-02 
597	 2,04314540098182E-02 
598	 2,07662795937705E-02 
599	 2,06789589540209E-02 
600	 2,05225557176333E-02 
601	 2,04394682850217E-02 
602	 2,05061450600903E-02 
603	 2,07645683919286E-02 
604	 2,11633277627899E-02 
605	 2,07135559678001E-02 
606	 1,98950641826217E-02 
607	 2,03726675616411E-02 
608	 2,03390010670025E-02 
609	 1,94894108026102E-02 
610	 2,03287431708279E-02 
611	 2,11397778255119E-02 
612	 1,96047016692244E-02 
613	 1,90214454985826E-02 
614	 1,96556514012744E-02 
615	 1,95132343169799E-02 
616	 0,019274264423277 
617	 1,93704191625625E-02 
618	 1,96795858601904E-02 
619	 1,99755218937442E-02 
620	 1,98073240428396E-02 
621	 2,00789476819693E-02 
622	 2,06521925689662E-02 
623	 1,93070035103492E-02 
624	 1,79507522481243E-02 
625	 1,86082022264804E-02 
626	 1,92389759209011E-02 
627	 0,019434892219253 
628	 1,93227946800587E-02 
629	 1,93978335427186E-02 
630	 1,99328878990075E-02 
631	 2,07545029931092E-02 
632	 2,15354436969075E-02 
633	 2,18353077844955E-02 
634	 0,021650162841414 
635	 2,12539013744211E-02 
636	 0,021662020988284 
637	 2,24045100162131E-02 
638	 2,30151415744357E-02 
639	 2,31740872591376E-02 
640	 2,30991394705091E-02 
641	 2,35300489321905E-02 
642	 2,39057563603994E-02 
643	 2,40440879347566E-02 
644	 0,024228646102455 
645	 2,45601111451573E-02 
646	 2,51360050479883E-02 
647	 2,51872206625471E-02 
648	 2,48595178372045E-02 
649	 2,53320483718924E-02 
650	 2,60734174261908E-02 
651	 2,66303487574526E-02 
652	 2,63296325368903E-02 
653	 2,57553201910169E-02 
654	 2,63282952640131E-02 
655	 2,66668492356654E-02 
656	 0,026372270594157 
657	 2,58082581930573E-02 
658	 2,56836522691941E-02 
659	 2,66251919132135E-02 
660	 2,64761294405805E-02 
661	 0,025399579893985 
662	 2,52513458785332E-02 
663	 2,53475792585472E-02 
664	 2,53132653385604E-02 
665	 2,49965089775584E-02 
666	 0,024292010276626 
667	 2,30266423958258E-02 
668	 2,26514735104296E-02 
669	 2,32605914409321E-02 
670	 2,33846193209914E-02 
671	 2,33595251330355E-02 
672	 0,023442094838749 
673	 2,31096799861416E-02 
674	 2,24743020886663E-02 
675	 2,18344738246908E-02 
676	 2,20016145024618E-02 
677	 2,29994715475517E-02 
678	 2,30108430879638E-02 
679	 2,26130196308426E-02 
680	 2,26718465472413E-02 
681	 2,28334038328179E-02 
682	 2,29754148136228E-02 
683	 0,022946353346075 
684	 2,28228764592375E-02 
685	 2,26906602420093E-02 
686	 2,27905730000044E-02 
687	 2,30885565270692E-02 
688	 2,34618095264607E-02 
689	 2,38656707890329E-02 
690	 2,42956151269426E-02 
691	 0,024759600495374 
692	 2,55701890595942E-02 
693	 2,69714022096837E-02 
694	 2,83434862338408E-02 
695	 2,96853497959026E-02 
696	 3,12799406822049E-02 
697	 0,033243325561509 
698	 3,56825101348195E-02 
699	 3,87966634071731E-02 
700	 4,21907010970009E-02 
701	 4,53509372856107E-02 
702	 4,86003570869862E-02 
703	 5,21713461671114E-02 
704	 5,65700554996736E-02 
705	 6,11669839488801E-02 
706	 6,55163560004665E-02 
707	 6,95390713595799E-02 
708	 7,35693465421442E-02 
709	 7,82720815638124E-02 
710	 8,28763972461392E-02 
711	 8,70977267166057E-02 
712	 9,09328652571056E-02 
713	 9,46884849065542E-02 
714	 9,86222871872095E-02 
715	 0,102426454872859 
716	 0,105985591991435 
717	 0,109206460813157 
718	 0,112106876090495 
719	 0,114795614145777 
720	 0,117839832616227 
721	 0,120919708027472 
722	 0,123572464708608 
723	 0,12578673402908 
724	 0,127739075463728 
725	 0,130106570546712 
726	 0,131973830442716 
727	 0,132998951741006 
728	 0,135347970105699 
729	 0,138026490946527 
730	 0,13874671050314 
731	 0,139368978445924 
732	 0,140430543931119 
733	 0,141641558792536 
734	 0,142731850996019 
735	 0,143489832729581 
736	 0,144314176893666 
737	 0,145247185016601 
738	 0,146235043206938 
739	 0,14704845757311 
740	 0,147619018368785 
741	 0,148188510140678 
742	 0,148695558041551 
743	 0,149049442314455 
744	 0,149417482484731 
745	 0,149906461534274 
746	 0,150767766780573 
747	 0,151318637016066 
748	 0,15125382196822 
749	 0,151327681991857 
750	 0,151486366794111 
751	 0,151479748152874 
752	 0,151888991299134 
753	 0,152583293363238 
754	 0,152468445521983 
755	 0,152274638129683 
756	 0,152539302201368 
757	 0,152887454918894 
758	 0,15327186017755 
759	 0,153764662145891 
760	 0,153825002406799 
761	 0,153471473667072 
762	 0,15371290403297 
763	 0,154020899670166 
764	 0,153879090378999 
765	 0,153911517768382 
766	 0,154118924031368 
767	 0,154188923801832 
768	 0,154305623883726 
769	 0,154469258036052 
770	 0,154242054505064 
771	 0,154145101991127 
772	 0,15479898964525 
773	 0,154844518138248 
774	 0,154330414533541 
775	 0,154333221032529 
776	 0,15474486132798 
777	 0,155392347501423 
778	 0,155366832306694 
779	 0,155103801725507 
780	 0,155390725725799 
781	 0,155851088356954 
782	 0,156223977899483 
783	 0,155919293857808 
784	 0,155730816107281 
785	 0,156104100278143 
786	 0,155966946190374 
787	 0,155708644415021 
788	 0,156310021156696 
789	 0,15652191218936 
790	 0,156216726706043 
791	 0,156569962570929 
792	 0,156844650952837 
793	 0,156495893081357 
794	 0,156529673124138 
795	 0,156793044640874 
796	 0,156556006738508 
797	 0,156662643959308 
798	 0,157190492692766 
799	 0,157094068753847 
800	 0,15695027320726 
801	 0,157311173551323 
802	 0,157439697736668 
803	 0,157362867946614 
804	 0,157464795836766 
805	 0,157762439412654 
806	 0,158218752043536 
807	 0,158538477579553 
808	 0,158750673045233 
809	 0,158902561749528 
810	 0,158707266793862 
811	 0,158353343080366 
812	 0,158455680621373 
813	 0,158818566921631 
814	 0,159243638128331 
815	 0,159071703530182 
816	 0,158770716627728 
817	 0,158960357244914 
818	 0,159374770169861 
819	 0,159830800755865 
820	 0,15993800223066 
821	 0,160232017966553 
822	 0,160820165036067 
823	 0,160682353486423 
824	 0,160243667972031 
825	 0,160180304379064 
826	 0,160930513850349 
827	 0,162057705782659 
828	 0,161828107395647 
829	 0,161609215290317 
830	 0,161973506458597 
831	 0,161616076488219 
832	 0,161153905727161 
833	 0,161584161275416 
834	 0,162076761679534 
835	 0,162311838790489 
836	 0,161926444587882 
837	 0,161793036205525 
838	 0,162329573382727 
839	 0,16277755791763 
840	 0,163012381427919 
841	 0,162996115298694 
842	 0,162919548134572 
843	 0,162929793076339 
844	 0,163301049759445 
845	 0,163577790873752 
846	 0,163582793649225 
847	 0,164024795258927 
848	 0,164532877146397 
849	 0,164493409529402 
850	 0,164242700812618 
851	 0,164019320434215 
852	 0,164293823284687 
853	 0,164567322372654 
854	 0,164545304881643 
855	 0,164241079802214 
856	 0,164010367105913 
857	 0,164321474475618 
858	 0,164353777369725 
859	 0,164114310209695 
860	 0,164252496333995 
861	 0,164737877281135 
862	 0,165410835592552 
863	 0,165331165647108 
864	 0,165054336067434 
865	 0,165421190753163 
866	 0,165688223170437 
867	 0,165795906465847 
868	 0,166193573328597 
869	 0,166079801893849 
870	 0,165293297756249 
871	 0,165221061341412 
872	 0,165873770729561 
873	 0,167034501467553 
874	 0,167084276542704 
875	 0,16635877105671 
876	 0,166968138199392 
877	 0,16760191079297 
878	 0,167750509304895 
879	 0,167836288648749 
880	 0,167749618775684 
881	 0,167392671022348 
882	 0,167614927174545 
883	 0,168287286996497 
884	 0,168672659941925 
885	 0,168595211565366 
886	 0,168203110011741 
887	 0,168750394230567 
888	 0,169373216881138 
889	 0,169256331895019 
890	 0,169593073206743 
891	 0,17001163011417 
892	 0,169157184711137 
893	 0,169143982150852 
894	 0,170145070782031 
895	 0,169637479057796 
896	 0,168995795297415 
897	 0,169306963619075 
898	 0,169480666271482 
899	 0,169599665264154 
900	 0,170108127499202 
901	 0,170294309754148 
902	 0,170260534092077 
903	 0,171275112273644 
904	 0,171907410219645 
905	 0,1713859587551 
906	 0,17119139405909 
907	 0,171146853953766 
908	 0,170741475840427 
909	 0,170973341692682 
910	 0,171741146609498 
911	 0,171923495965536 
912	 0,172226475647533 
913	 0,17283581652283 
914	 0,172831422332844 
915	 0,172769324452369 
916	 0,173284124852445 
917	 0,172931214890199 
918	 0,171994255043256 
919	 0,171891674735503 
920	 0,171896767087361 
921	 0,171888127465502 
922	 0,172492235930607 
923	 0,172735162179289 
924	 0,171893352464889 
925	 0,17128708446013 
926	 0,171167901517649 
927	 0,171592714762083 
928	 0,171328018260166 
929	 0,170325767112905 
930	 0,169693773082675 
931	 0,170127667368558 
932	 0,171667435882941 
933	 0,171628572615359 
934	 0,17098632749558 
935	 0,171351542074826 
936	 0,171143513278341 
937	 0,170327827853087 
938	 0,169727658193819 
939	 0,16933573666569 
940	 0,169000161809371 
941	 0,167687213986871 
942	 0,166887637362475 
943	 0,167792816244651 
944	 0,168098215602673 
945	 0,167550005326468 
946	 0,16639543281753 
947	 0,16639720904649 
948	 0,167239631994017 
949	 0,165673729784488 
950	 0,1641249721784 
951	 0,163811320479475 
952	 0,162769200884011 
953	 0,161578492247411 
954	 0,161133232971996 
955	 0,160583545132841 
956	 0,160029597870314 
957	 0,160253222896815 
958	 0,159956329217039 
959	 0,159140659869452 
960	 0,160218405355242 
961	 0,160362023617077 
962	 0,157958013207028 
963	 0,159065177490216 
964	 0,161074278491336 
965	 0,158839956408577 
966	 0,157146838364116 
967	 0,156982070323125 
968	 0,157636518274555 
969	 0,157563334686041 
970	 0,156328153099023 
971	 0,155837495540492 
972	 0,15575409183129 
973	 0,155739702550008 
974	 0,1569996551434 
975	 0,158299317295297 
976	 0,157191464448236 
977	 0,15641184519575 
978	 0,156782127844327 
979	 0,158243501587158 
980	 0,15964444020287 
981	 0,160339368674338 
982	 0,160866723214074 
983	 0,160518187643213 
984	 0,158754736037607 
985	 0,158020364822936 
986	 0,158478598449908 
987	 0,159420892375438 
988	 0,161103352721654 
989	 0,162630795634695 
990	 0,160681471844726 
991	 0,160314906455251 
992	 0,163457221140926 
993	 0,164418752988748 
994	 0,163788061443803 
995	 0,162836598199036 
996	 0,163121536782376 
997	 0,164229533686014 
998	 0,164682916995157 
999	 0,165183298782704 
1000	 0,166127660155478 
1001	 0,168320141606823 
1002	 0,170280386974031 
1003	 0,171237326083928 
1004	 0,1719333437485 
1005	 0,171583121654046 
1006	 0,169524996593259 
1007	 0,167113350135712 
1008	 0,165559137669768 
1009	 0,166270158752939 
1010	 0,169060842968078 
1011	 0,172116128975282 
1012	 0,169892659890689 
1013	 0,168889054608277 
1014	 0,17168096661398 
1015	 0,175530585888318 
1016	 0,177059221642791 
1017	 0,1744272586073 
1018	 0,176739065384075 
1019	 0,180613095621142 
1020	 0,179186116853864 
1021	 0,175006544223208 
1022	 0,170887153279762 
1023	 0,172719911333203 
1024	 0,175764614965966 
1025	 0,177433919961599 
1026	 0,173506102153626 
1027	 0,173699021129287 
1028	 0,182575238452938 
1029	 0,185687479776689 
1030	 0,182756003484432 
1031	 0,176375737314296 
1032	 0,178640653748916 
1033	 0,186599742467728 
1034	 0,189060478128876 
1035	 0,187971436797366 
1036	 0,184657965167403 
1037	 0,182391135953173 
1038	 0,182098492580776 
1039	 0,184101695741368 
1040	 0,187441432077262 
1041	 0,188478892023126 
1042	 0,185426403162167 
1043	 0,189334351594892 
1044	 0,194624414635544 
1045	 0,191840262937581 
1046	 0,183283265153991 
1047	 0,176168146153041 
1048	 0,186604671123415 
1049	 0,190540771913383 
1050	 0,185069639619545 
1051	 0,189289619803768 
1052	 0,192006890526254 
1053	 0,189057863156536 
1054	 0,190118239725528 
1055	 0,190887207267975 
1056	 0,188461501702511 
1057	 0,196271019561386 
1058	 0,20402886668697 
1059	 0,196614860470616 
1060	 0,191130913640139 
1061	 0,191899658676496 
1062	 0,199395437642025 
1063	 0,207930853177889 
1064	 0,211665671153716 
1065	 0,195471664587034 
1066	 0,193864135263917 
1067	 0,214710437842911 
1068	 0,208688058708626 
1069	 0,198068549200897 
1070	 0,199094072031962 
1071	 0,19247942090754 
1072	 0,184723496452924 
1073	 0,186777943520738 
1074	 0,197906837652803 
1075	 0,207548098778211 
