Wavelength	PENFOUL00454.asd
325	 0,422011864345347 
326	 0,582878635376384 
327	 0,687775655086205 
328	 0,613276814065164 
329	 0,526041935151296 
330	 0,432127931794355 
331	 0,388671931320571 
332	 0,356197677027288 
333	 0,333851054546112 
334	 0,418076569799842 
335	 0,426574562508721 
336	 0,335049260493324 
337	 0,28790732134976 
338	 0,271679612886795 
339	 0,271029876881728 
340	 0,301501138955585 
341	 0,325811580433099 
342	 0,267176246898083 
343	 0,226348705834287 
344	 0,234265775825523 
345	 0,251596186110804 
346	 0,234285721089334 
347	 0,160399320395521 
348	 0,215645489798066 
349	 0,325462064276991 
350	 0,225395951669181 
351	 0,159887829083684 
352	 0,2080867770702 
353	 0,232382600245905 
354	 0,230856442927456 
355	 0,220987675448729 
356	 0,198743404765372 
357	 0,173252531045283 
358	 0,174892664066986 
359	 0,170279972064965 
360	 0,150043273316901 
361	 0,163787674557505 
362	 0,196528188392952 
363	 0,215669606449399 
364	 0,204528575613732 
365	 0,172738052635564 
366	 0,167748206290797 
367	 0,179920863909187 
368	 0,197932729483872 
369	 0,190662382600099 
370	 0,171506570711079 
371	 0,172218436509073 
372	 0,166442312351601 
373	 0,157704714852926 
374	 0,195028654284333 
375	 0,217145475227225 
376	 0,188346030048012 
377	 0,182827039548232 
378	 0,192114389469661 
379	 0,165772478866399 
380	 0,163668856696916 
381	 0,194555069742664 
382	 0,193679472813596 
383	 0,187432427156475 
384	 0,200845152048071 
385	 0,191370460531901 
386	 0,169319886558845 
387	 0,181976936710284 
388	 0,187784288569739 
389	 0,175416636875782 
390	 0,177015115695653 
391	 0,185098403152633 
392	 0,187836451053917 
393	 0,180554222292314 
394	 0,169348054752148 
395	 0,175305718090059 
396	 0,180648773536912 
397	 0,177013429848334 
398	 0,17678860632674 
399	 0,178955242857657 
400	 0,180397451303491 
401	 0,174710787423732 
402	 0,165794282435671 
403	 0,176480894227027 
404	 0,180564180744419 
405	 0,163967310290928 
406	 0,162955743091196 
407	 0,172837394599028 
408	 0,174172346763226 
409	 0,1707658294244 
410	 0,165516170516152 
411	 0,166728452284239 
412	 0,170097999034582 
413	 0,171070785527277 
414	 0,168404321837179 
415	 0,163760426820455 
416	 0,161952895136752 
417	 0,161033294016395 
418	 0,161044631425249 
419	 0,167885556398205 
420	 0,17233068801858 
421	 0,162905179711607 
422	 0,158843667795044 
423	 0,162497168139071 
424	 0,165516632197802 
425	 0,16529358695837 
426	 0,16124125902244 
427	 0,162900374158309 
428	 0,165997776048453 
429	 0,160168533994879 
430	 0,15889046249235 
431	 0,163427945238348 
432	 0,16078328612261 
433	 0,157339865547216 
434	 0,158763992181768 
435	 0,158483962920106 
436	 0,157263872225631 
437	 0,16030261196844 
438	 0,162197880496987 
439	 0,161207930420938 
440	 0,161049491949334 
441	 0,161464773853572 
442	 0,16170244241765 
443	 0,16199437415926 
444	 0,162296420088231 
445	 0,162452469812728 
446	 0,162117249365222 
447	 0,161258729494761 
448	 0,161451716099727 
449	 0,162077546740821 
450	 0,161421355375186 
451	 0,162087548040633 
452	 0,164462265349169 
453	 0,166872301515281 
454	 0,167575840429 
455	 0,165172334985502 
456	 0,161436405944961 
457	 0,158333209245292 
458	 0,159701901318619 
459	 0,161886655458163 
460	 0,163164779919014 
461	 0,163855070365713 
462	 0,164908779834236 
463	 0,167602835780525 
464	 0,166454460496152 
465	 0,16229119963417 
466	 0,162844269057443 
467	 0,164464318679304 
468	 0,164785070678057 
469	 0,165731179874476 
470	 0,166555889948199 
471	 0,165143162874451 
472	 0,165356505056105 
473	 0,167861628421268 
474	 0,169652614339988 
475	 0,169821293278178 
476	 0,167773335962745 
477	 0,165705842691711 
478	 0,16442553074301 
479	 0,164326510513197 
480	 0,165508546078967 
481	 0,16740981024801 
482	 0,166210864780392 
483	 0,164130912164569 
484	 0,164906212302547 
485	 0,166818400990422 
486	 0,168709158573804 
487	 0,168143510759894 
488	 0,16761076610639 
489	 0,168746923546356 
490	 0,167480188377484 
491	 0,164675949463927 
492	 0,163528450414587 
493	 0,162957719208143 
494	 0,162840078616034 
495	 0,164030758632218 
496	 0,165235460218454 
497	 0,164996361479969 
498	 0,164461063011428 
499	 0,163975752540089 
500	 0,163438583951719 
501	 0,164107131456818 
502	 0,166366071402432 
503	 0,167476182026242 
504	 0,167267595451914 
505	 0,166022852951277 
506	 0,165493709182643 
507	 0,166406989894399 
508	 0,169136666341208 
509	 0,17106362150833 
510	 0,170110701276241 
511	 0,171147181547006 
512	 0,173353049382841 
513	 0,171831386182169 
514	 0,171810611691977 
515	 0,174758358591727 
516	 0,174477594890393 
517	 0,173089943230818 
518	 0,17438933582027 
519	 0,174833559708691 
520	 0,174055160197677 
521	 0,174011305673939 
522	 0,174212966230786 
523	 0,17429507566511 
524	 0,17453712462912 
525	 0,174736707689763 
526	 0,174336641430576 
527	 0,174034730875535 
528	 0,174128968283411 
529	 0,174874052078911 
530	 0,175126684146779 
531	 0,173626484630272 
532	 0,172994819044957 
533	 0,173553016398858 
534	 0,174316499506133 
535	 0,17464654927844 
536	 0,174260345148374 
537	 0,174429599276591 
538	 0,175010038548305 
539	 0,175493422682046 
540	 0,175232044654526 
541	 0,174215587528993 
542	 0,173358635529161 
543	 0,173230245576705 
544	 0,174238483474733 
545	 0,174510101674891 
546	 0,174053099335386 
547	 0,174083423673915 
548	 0,174063319973166 
549	 0,173922426596171 
550	 0,174883239307614 
551	 0,176135754278389 
552	 0,176284154039766 
553	 0,175976204902098 
554	 0,175500527494542 
555	 0,175203815044685 
556	 0,175198583620838 
557	 0,17549145168533 
558	 0,175067776332486 
559	 0,174170569358804 
560	 0,173914215341448 
561	 0,173482281740079 
562	 0,17271267310079 
563	 0,172684740648966 
564	 0,172496130246923 
565	 0,170848628141231 
566	 0,170158706443355 
567	 0,170910336099661 
568	 0,172546429349194 
569	 0,173483779018956 
570	 0,172803706716961 
571	 0,173044940083266 
572	 0,174474070477628 
573	 0,176897175793208 
574	 0,178436930888876 
575	 0,178732006019708 
576	 0,180150809701238 
577	 0,181874515622676 
578	 0,182837778338784 
579	 0,18500363069178 
580	 0,187860301657341 
581	 0,188388653722284 
582	 0,189092424582889 
583	 0,19123897519137 
584	 0,192743374704312 
585	 0,19368451349223 
586	 0,194686322052503 
587	 0,19569187374718 
588	 0,196659629913016 
589	 0,197289216932963 
590	 0,198161988456929 
591	 0,199730748259503 
592	 0,20009485359421 
593	 0,199674329304603 
594	 0,200682665376233 
595	 0,20158511359783 
596	 0,201718206728654 
597	 0,201676183372628 
598	 0,201553379373675 
599	 0,201381847704316 
600	 0,201505044402434 
601	 0,201768570554345 
602	 0,201227321949042 
603	 0,200448456197692 
604	 0,199867675330379 
605	 0,198790486137793 
606	 0,197680562603217 
607	 0,198023014643284 
608	 0,197761914186274 
609	 0,196528231581769 
610	 0,197268859176235 
611	 0,197867221906034 
612	 0,195484539296232 
613	 0,193712375567557 
614	 0,193251368811353 
615	 0,193259231778222 
616	 0,193004107821753 
617	 0,192122273492954 
618	 0,192141628190872 
619	 0,192522352768911 
620	 0,191757028267356 
621	 0,19108170000834 
622	 0,190907003881974 
623	 0,191134361285485 
624	 0,191318927062318 
625	 0,191040133482318 
626	 0,191306834486273 
627	 0,191937386734577 
628	 0,191660008142389 
629	 0,191869120694877 
630	 0,19312827436974 
631	 0,193921166135947 
632	 0,19440309621414 
633	 0,195132854590574 
634	 0,195888490486244 
635	 0,196599516123858 
636	 0,197113338188113 
637	 0,197954524433902 
638	 0,199505279276762 
639	 0,200704487883845 
640	 0,201517836381965 
641	 0,20239220099812 
642	 0,203318633202242 
643	 0,20424639949277 
644	 0,204822962109774 
645	 0,205196730163289 
646	 0,205607182977522 
647	 0,205550342891377 
648	 0,205099685297052 
649	 0,204953113234187 
650	 0,20470233725846 
651	 0,204040181170211 
652	 0,202838324659094 
653	 0,201348870888829 
654	 0,20007536977217 
655	 0,199000645058052 
656	 0,19783003344907 
657	 0,195014900338025 
658	 0,192425544922524 
659	 0,191973706730473 
660	 0,190316865350168 
661	 0,18744671947512 
662	 0,185458850720019 
663	 0,183790590840881 
664	 0,182201575919032 
665	 0,180859327971014 
666	 0,179468699020311 
667	 0,177530167941434 
668	 0,176134676769892 
669	 0,17552359760701 
670	 0,175298290658667 
671	 0,174943022031797 
672	 0,174097070896219 
673	 0,173613246985768 
674	 0,173384149362959 
675	 0,172654759982099 
676	 0,172618159183988 
677	 0,173449296458251 
678	 0,173523335968067 
679	 0,173201891229953 
680	 0,173082172593236 
681	 0,173484944811589 
682	 0,17447475968754 
683	 0,175939512438553 
684	 0,177316233972994 
685	 0,178414833813029 
686	 0,180547613266885 
687	 0,183608490777145 
688	 0,187115653065225 
689	 0,19060719559987 
690	 0,19432908619085 
691	 0,199999370109381 
692	 0,206514018415911 
693	 0,212886146902083 
694	 0,220436419964919 
695	 0,229115742502656 
696	 0,238213621786619 
697	 0,24803867577843 
698	 0,258580704152598 
699	 0,26931285010406 
700	 0,280374365748764 
701	 0,292015743025434 
702	 0,303402362060885 
703	 0,314246997091269 
704	 0,324573008777734 
705	 0,334514497022077 
706	 0,344141990702974 
707	 0,353229968482287 
708	 0,361717313060967 
709	 0,369568686156221 
710	 0,376769803356053 
711	 0,383428211726484 
712	 0,389975496876129 
713	 0,396231338316544 
714	 0,401972023907333 
715	 0,407019727331394 
716	 0,411527770873471 
717	 0,41596714443097 
718	 0,420145052721245 
719	 0,423933893855053 
720	 0,427095626941803 
721	 0,429825204482022 
722	 0,432403074610912 
723	 0,434868104822517 
724	 0,437344702403365 
725	 0,440263856691498 
726	 0,442434651089873 
727	 0,443314705280605 
728	 0,444936442671567 
729	 0,446966036835884 
730	 0,448303791214023 
731	 0,449323907702165 
732	 0,450204326851213 
733	 0,451266806120894 
734	 0,452368573371037 
735	 0,453354653496546 
736	 0,454030961416333 
737	 0,454620571406404 
738	 0,455812650616008 
739	 0,456745335933073 
740	 0,457190928763184 
741	 0,457927365977748 
742	 0,458600007124904 
743	 0,458741390667103 
744	 0,45893182529301 
745	 0,459331947586415 
746	 0,460020173621187 
747	 0,460479047882561 
748	 0,460520545049799 
749	 0,46104045494937 
750	 0,461712902061929 
751	 0,461869064771519 
752	 0,462239554634503 
753	 0,462804137936863 
754	 0,462699731952221 
755	 0,462625308535346 
756	 0,463062619324762 
757	 0,463356891411814 
758	 0,463580465898979 
759	 0,464132077434049 
760	 0,4643077100942 
761	 0,46408504089772 
762	 0,464539204778508 
763	 0,464977847054337 
764	 0,464750837619542 
765	 0,46484816495449 
766	 0,465316097749385 
767	 0,465842610178235 
768	 0,465958311498027 
769	 0,465646481472335 
770	 0,466093163370456 
771	 0,466812331057822 
772	 0,467108111962871 
773	 0,466971842100248 
774	 0,46662342941912 
775	 0,4667239997466 
776	 0,46698329210213 
777	 0,467231755998833 
778	 0,467360113810903 
779	 0,467479318328567 
780	 0,467773642976572 
781	 0,468141479622974 
782	 0,468458562672286 
783	 0,468388108482389 
784	 0,468367130950682 
785	 0,468663848577422 
786	 0,468918790526103 
787	 0,469041269765533 
788	 0,468951473878084 
789	 0,469050013719996 
790	 0,469373108536383 
791	 0,469534491481787 
792	 0,469493969429387 
793	 0,469258993350778 
794	 0,469147936601431 
795	 0,469205574363149 
796	 0,469379811496737 
797	 0,469668790337976 
798	 0,470003572625097 
799	 0,470171565679362 
800	 0,470133873069789 
801	 0,469920719890974 
802	 0,47033932360883 
803	 0,47108988358221 
804	 0,471002639569589 
805	 0,470952308858374 
806	 0,471189501704069 
807	 0,4712309863667 
808	 0,471343682152208 
809	 0,471823408939127 
810	 0,472266165592314 
811	 0,472472963490444 
812	 0,472090909300144 
813	 0,472074359745464 
814	 0,472684338161557 
815	 0,472725121358685 
816	 0,472564779907609 
817	 0,472756342717465 
818	 0,472916929579948 
819	 0,473094502105936 
820	 0,473705648084071 
821	 0,474157219760168 
822	 0,474181739727611 
823	 0,474136163152855 
824	 0,474056950305091 
825	 0,473949872123735 
826	 0,474557833550213 
827	 0,475505451984909 
828	 0,475006419771644 
829	 0,474708092641974 
830	 0,4753092075514 
831	 0,475238876333918 
832	 0,475067878430718 
833	 0,475777928604436 
834	 0,475940354984261 
835	 0,475581352546228 
836	 0,476021008024791 
837	 0,476338605090096 
838	 0,476142671318276 
839	 0,476359778809787 
840	 0,47685653358041 
841	 0,477300144838221 
842	 0,477418940284456 
843	 0,477231626025555 
844	 0,477068958646523 
845	 0,476980452493372 
846	 0,477047144982218 
847	 0,477548222772386 
848	 0,478007862329066 
849	 0,477740821024674 
850	 0,477784184737963 
851	 0,478172342873589 
852	 0,478119297159228 
853	 0,477966974537099 
854	 0,477894087606079 
855	 0,477729270567139 
856	 0,477775577865841 
857	 0,47844478710223 
858	 0,478690185596861 
859	 0,478509318249378 
860	 0,478824123040081 
861	 0,47903411340054 
862	 0,47893422824241 
863	 0,479308632296376 
864	 0,479798513277948 
865	 0,479845264893926 
866	 0,479975008483016 
867	 0,480283057663251 
868	 0,480765544705564 
869	 0,480755476262208 
870	 0,480099311665786 
871	 0,479929469472414 
872	 0,480320395788361 
873	 0,481176748012044 
874	 0,481364639913001 
875	 0,481039642524268 
876	 0,481502241672575 
877	 0,481769696946493 
878	 0,48158197317287 
879	 0,481946813929294 
880	 0,482239759866833 
881	 0,481754674596402 
882	 0,481457822585573 
883	 0,481523118868505 
884	 0,481825775153091 
885	 0,482354288338584 
886	 0,482962466522225 
887	 0,483118325650733 
888	 0,483027620711677 
889	 0,482936108817737 
890	 0,48299805831805 
891	 0,483080341154272 
892	 0,482775650038149 
893	 0,482767945530395 
894	 0,483121195501871 
895	 0,48304556431218 
896	 0,482954642945663 
897	 0,483167758194494 
898	 0,483206037690364 
899	 0,483449927396855 
900	 0,48473394955555 
901	 0,485163325584449 
902	 0,484533214462725 
903	 0,484342868469968 
904	 0,484237905874542 
905	 0,484058411878828 
906	 0,484314675148981 
907	 0,48446900091087 
908	 0,483707722608833 
909	 0,483909930059978 
910	 0,484943066326795 
911	 0,484788114359332 
912	 0,48502486944872 
913	 0,486089988405378 
914	 0,485988117815909 
915	 0,485478055832596 
916	 0,48555412357138 
917	 0,485045594555004 
918	 0,484496236591082 
919	 0,485969365125532 
920	 0,486415744411593 
921	 0,485267872770792 
922	 0,485411197749427 
923	 0,485738679283578 
924	 0,485333056740445 
925	 0,485632318672575 
926	 0,486226013557087 
927	 0,486043300536995 
928	 0,485016456876906 
929	 0,483694918543453 
930	 0,483988074050893 
931	 0,485086589264752 
932	 0,486257071317091 
933	 0,486377678019243 
934	 0,485604111613359 
935	 0,484391034658517 
936	 0,484193945401126 
937	 0,48469570858365 
938	 0,483911002942322 
939	 0,483304356154993 
940	 0,48324405734643 
941	 0,482466774762959 
942	 0,482563745154765 
943	 0,484590765913436 
944	 0,483740911753112 
945	 0,48159074944757 
946	 0,482573136900694 
947	 0,482834466168529 
948	 0,481584311447389 
949	 0,479944511383325 
950	 0,47923632469516 
951	 0,479802518417581 
952	 0,478227995444258 
953	 0,47647260306119 
954	 0,477205114549239 
955	 0,477461032361027 
956	 0,477028246072728 
957	 0,477017974408106 
958	 0,47712875071157 
959	 0,477159789699189 
960	 0,476677665009082 
961	 0,4757033096539 
962	 0,474572050711999 
963	 0,475799741902736 
964	 0,477580813347237 
965	 0,476723994788312 
966	 0,474242946906449 
967	 0,472055866081058 
968	 0,475532348958777 
969	 0,476807145222948 
970	 0,473563929878976 
971	 0,473292949002648 
972	 0,473988344415357 
973	 0,473616570905468 
974	 0,475556745245053 
975	 0,477674988419936 
976	 0,475361316348256 
977	 0,473945620113263 
978	 0,474554389970937 
979	 0,475361790713812 
980	 0,477080271274158 
981	 0,479225730909173 
982	 0,477458715209392 
983	 0,475358245499206 
984	 0,476683792775669 
985	 0,477516671545902 
986	 0,477625641883456 
987	 0,477922070251616 
988	 0,478643544512777 
989	 0,479434320465337 
990	 0,478602607761572 
991	 0,478340538273727 
992	 0,479696524319915 
993	 0,481479405694718 
994	 0,482481432951368 
995	 0,481719258463034 
996	 0,481320377417014 
997	 0,482350162362793 
998	 0,486123265150885 
999	 0,486602123501022 
1000	 0,483650220109602 
1001	 0,48326313563973 
1002	 0,485519897785781 
1003	 0,489442489804023 
1004	 0,488911153341356 
1005	 0,487232954987655 
1006	 0,488098676576263 
1007	 0,490703720084631 
1008	 0,491512775690431 
1009	 0,484598559628419 
1010	 0,484630873921956 
1011	 0,491556567696313 
1012	 0,491194789144828 
1013	 0,490597193057126 
1014	 0,492076430556507 
1015	 0,491618995912536 
1016	 0,490780086241193 
1017	 0,491191447314421 
1018	 0,493839709647216 
1019	 0,496597708212048 
1020	 0,496287250173916 
1021	 0,496161513010031 
1022	 0,496374013766553 
1023	 0,495056682734339 
1024	 0,493767862753111 
1025	 0,493857486539284 
1026	 0,498681729813806 
1027	 0,50249043336637 
1028	 0,501685718928199 
1029	 0,49974200459906 
1030	 0,496777688774006 
1031	 0,493138995737826 
1032	 0,497549818071698 
1033	 0,504679062332125 
1034	 0,500271717454449 
1035	 0,499993770989191 
1036	 0,504646650964454 
1037	 0,500781527873377 
1038	 0,498104139710196 
1039	 0,499800685329135 
1040	 0,496986406556531 
1041	 0,4966694469969 
1042	 0,504143479827847 
1043	 0,511178527509599 
1044	 0,515980642223149 
1045	 0,517730038407538 
1046	 0,511854412496178 
1047	 0,502976466445412 
1048	 0,504275598919039 
1049	 0,507682468843211 
1050	 0,510162060415845 
1051	 0,509548072058864 
1052	 0,507901841253947 
1053	 0,506848509676593 
1054	 0,508425613552827 
1055	 0,509602411416285 
1056	 0,508286654381131 
1057	 0,512009901776486 
1058	 0,515972534782956 
1059	 0,5128288695755 
1060	 0,508974693476538 
1061	 0,507932100516027 
1062	 0,514221134265493 
1063	 0,519151376146789 
1064	 0,519014654050511 
1065	 0,509423879516493 
1066	 0,511963447760411 
1067	 0,529975213012807 
1068	 0,524992536839804 
1069	 0,51446196217161 
1070	 0,512815674249237 
1071	 0,519115724620405 
1072	 0,519503657127235 
1073	 0,500500207097207 
1074	 0,508511280923877 
1075	 0,52819095442243 
