Wavelength	PENFOUL00540.asd
325	 0,42981369836533 
326	 0,33311039889813 
327	 0,319997439292706 
328	 0,413148550781311 
329	 0,489835171916078 
330	 0,495345808050322 
331	 0,422218652034389 
332	 0,388344202998374 
333	 0,389405479706007 
334	 0,469652482097663 
335	 0,493178613897676 
336	 0,436151129435642 
337	 0,382047805152764 
338	 0,341527461035929 
339	 0,328727144389092 
340	 0,335979133913247 
341	 0,348181873101827 
342	 0,347882785119238 
343	 0,334761110339969 
344	 0,309025379463726 
345	 0,285647300036741 
346	 0,262075107543973 
347	 0,237770812887158 
348	 0,282907347143095 
349	 0,353593154277956 
350	 0,311217016098805 
351	 0,269011854627626 
352	 0,26792313080162 
353	 0,279668061449781 
354	 0,285487448745621 
355	 0,27220116314557 
356	 0,272105238100572 
357	 0,291042636257362 
358	 0,328239486066472 
359	 0,330692140585416 
360	 0,288686554648487 
361	 0,297325631961775 
362	 0,328923871649331 
363	 0,324555578828217 
364	 0,316056546927312 
365	 0,310675867568455 
366	 0,309883325730352 
367	 0,316323568617723 
368	 0,328686914834433 
369	 0,325022244191794 
370	 0,31816007279933 
371	 0,337099418850012 
372	 0,334226874061152 
373	 0,312042482419421 
374	 0,346482082441483 
375	 0,369387646523686 
376	 0,339394509358524 
377	 0,336666217645137 
378	 0,350728637333197 
379	 0,330745619682001 
380	 0,305338219688143 
381	 0,291020510255128 
382	 0,306837235515151 
383	 0,326977106320614 
384	 0,328762590386581 
385	 0,327472793343091 
386	 0,324737754465483 
387	 0,315301384061186 
388	 0,316620885566017 
389	 0,331889797987344 
390	 0,339392173316711 
391	 0,341122540765135 
392	 0,341294232808742 
393	 0,338029943568681 
394	 0,333281594946638 
395	 0,331751286857671 
396	 0,335466666246874 
397	 0,343291055544792 
398	 0,338957521379778 
399	 0,333025299293222 
400	 0,343721217430724 
401	 0,345867261957819 
402	 0,337611733276886 
403	 0,336740625374777 
404	 0,338087120216486 
405	 0,338050445076107 
406	 0,339931112196074 
407	 0,342705242788401 
408	 0,344120231814379 
409	 0,340363610691929 
410	 0,333132433741155 
411	 0,333608099337755 
412	 0,337759399163912 
413	 0,341084456827466 
414	 0,341736021726921 
415	 0,339965038942022 
416	 0,33728354356157 
417	 0,335804206419178 
418	 0,336636757686819 
419	 0,34104006263808 
420	 0,342721370673995 
421	 0,333997750555299 
422	 0,335580138971162 
423	 0,345979543766933 
424	 0,343351727609413 
425	 0,337699110651728 
426	 0,3352609203023 
427	 0,334106420307257 
428	 0,335072817163345 
429	 0,340456816965275 
430	 0,341039612640658 
431	 0,336659678319044 
432	 0,339781293183677 
433	 0,344728359214414 
434	 0,346069399911384 
435	 0,342960358410143 
436	 0,338812775761983 
437	 0,342756980729879 
438	 0,34616922635092 
439	 0,34572419228085 
440	 0,343946441975605 
441	 0,343284041996992 
442	 0,34646237078896 
443	 0,347644238108917 
444	 0,34655315613268 
445	 0,347526415814072 
446	 0,347847350592682 
447	 0,346291384792027 
448	 0,347536436946012 
449	 0,349392824692884 
450	 0,346150988769548 
451	 0,347304808134289 
452	 0,353547486193392 
453	 0,354105871383646 
454	 0,353184866546055 
455	 0,354878837006671 
456	 0,353951542874901 
457	 0,351231083368964 
458	 0,351227544085588 
459	 0,351897081493081 
460	 0,352445032078449 
461	 0,353207681490404 
462	 0,354303916200615 
463	 0,355882900074072 
464	 0,356417218620826 
465	 0,355662347580594 
466	 0,354101100260276 
467	 0,353340192749299 
468	 0,354201478292732 
469	 0,353839353800277 
470	 0,352832426395093 
471	 0,352881648502844 
472	 0,355170369165698 
473	 0,359285382644346 
474	 0,361893238777626 
475	 0,361907603370139 
476	 0,358694593187419 
477	 0,356324122193915 
478	 0,355589449474612 
479	 0,355685005795802 
480	 0,356684282460475 
481	 0,358175745218196 
482	 0,357619072344186 
483	 0,356691943028362 
484	 0,358275624847802 
485	 0,358305640624661 
486	 0,356909795303978 
487	 0,358729172405561 
488	 0,361219052052477 
489	 0,362158804188032 
490	 0,359881148107369 
491	 0,356620029548972 
492	 0,358146202995343 
493	 0,358339481238258 
494	 0,355896450492914 
495	 0,355990463264791 
496	 0,356755407216049 
497	 0,355721068459349 
498	 0,35632818901568 
499	 0,358441567202629 
500	 0,359463607450676 
501	 0,359719422647636 
502	 0,359526352532306 
503	 0,360211538207551 
504	 0,360956101477398 
505	 0,35987839997778 
506	 0,36010285887139 
507	 0,361963746485083 
508	 0,362563465952422 
509	 0,362708744517096 
510	 0,363301242234957 
511	 0,365298613548011 
512	 0,367722332327253 
513	 0,367706077283063 
514	 0,367253105497115 
515	 0,367391507599174 
516	 0,368699675699049 
517	 0,36997397866146 
518	 0,36947066048311 
519	 0,369448435622064 
520	 0,370204255688348 
521	 0,370568490769736 
522	 0,370715367258138 
523	 0,370798430882451 
524	 0,37096889300057 
525	 0,371174670879229 
526	 0,371296487336984 
527	 0,370998019694319 
528	 0,370365671640574 
529	 0,370585839725377 
530	 0,370717237334614 
531	 0,369625013414955 
532	 0,369525027223406 
533	 0,370518670190492 
534	 0,371465696135576 
535	 0,371421878682271 
536	 0,370080853029129 
537	 0,370037357860113 
538	 0,370853204054876 
539	 0,371073484830973 
540	 0,371052129599098 
541	 0,370863588480776 
542	 0,370460238190484 
543	 0,37041954082381 
544	 0,371234024091393 
545	 0,371430286725118 
546	 0,371159672031984 
547	 0,371796447394695 
548	 0,37216317069528 
549	 0,37188120361982 
550	 0,372572211384367 
551	 0,373498207564537 
552	 0,373272489661863 
553	 0,372801278923336 
554	 0,372485755433631 
555	 0,37279190457774 
556	 0,373257687439629 
557	 0,37342049550132 
558	 0,372554312339365 
559	 0,371307393414333 
560	 0,371748390932084 
561	 0,371506615311504 
562	 0,369963075209501 
563	 0,369586294518151 
564	 0,369515962960151 
565	 0,368326181823156 
566	 0,368110128194495 
567	 0,369082654582849 
568	 0,370086398815669 
569	 0,370803027904452 
570	 0,371098915422397 
571	 0,372015953034554 
572	 0,373555988329509 
573	 0,375467305259512 
574	 0,376628687310188 
575	 0,377060166414299 
576	 0,37926774765763 
577	 0,381988080383938 
578	 0,383642645483116 
579	 0,38597000114046 
580	 0,388607379633872 
581	 0,389270440142332 
582	 0,389736082242571 
583	 0,39102681186929 
584	 0,392552034577605 
585	 0,393827683034517 
586	 0,394061890036721 
587	 0,395213907986948 
588	 0,397344572700132 
589	 0,397832691868155 
590	 0,398063318600442 
591	 0,399364811076115 
592	 0,400122813106475 
593	 0,400345471372782 
594	 0,400856028993713 
595	 0,401534496700316 
596	 0,402328270644721 
597	 0,40325636701282 
598	 0,403636466008005 
599	 0,402427494652034 
600	 0,402543851367585 
601	 0,403905611038531 
602	 0,402762740650909 
603	 0,401240786237007 
604	 0,401017990516081 
605	 0,400495060248734 
606	 0,399731836282977 
607	 0,399639904698413 
608	 0,398798862943834 
609	 0,39707288725777 
610	 0,397035043006686 
611	 0,397275678978264 
612	 0,395819673773076 
613	 0,394480698118556 
614	 0,393707952926839 
615	 0,393397300486056 
616	 0,393215386460835 
617	 0,39293346639587 
618	 0,392676322907625 
619	 0,39247967744002 
620	 0,392423089701681 
621	 0,39213046741889 
622	 0,391607130360472 
623	 0,391508061903786 
624	 0,391573394373681 
625	 0,391510645714572 
626	 0,391806403207956 
627	 0,392379907237538 
628	 0,392705009869956 
629	 0,393088659398647 
630	 0,393713412985974 
631	 0,394731079799087 
632	 0,395784634221671 
633	 0,396269440389997 
634	 0,397131866082551 
635	 0,398342084465804 
636	 0,398417741945748 
637	 0,399074094224582 
638	 0,401610435442173 
639	 0,40285922076084 
640	 0,403011763163293 
641	 0,404088226170587 
642	 0,405212865536576 
643	 0,406063497520779 
644	 0,406711184859764 
645	 0,407189732358679 
646	 0,407547368322154 
647	 0,407422995811634 
648	 0,406876028180118 
649	 0,406399706802958 
650	 0,405922581573362 
651	 0,405360977764483 
652	 0,404447732368039 
653	 0,403126946456197 
654	 0,401315980012185 
655	 0,399772924800001 
656	 0,398610454766475 
657	 0,396899239657037 
658	 0,394969617291378 
659	 0,39321940370109 
660	 0,391425929749812 
661	 0,389451973894487 
662	 0,386966792886238 
663	 0,384751611949186 
664	 0,383201172213107 
665	 0,38202141870238 
666	 0,380671131682746 
667	 0,378321259461951 
668	 0,377081560293965 
669	 0,377166601481269 
670	 0,376841121452255 
671	 0,376319096847061 
672	 0,375807217931059 
673	 0,375371941581526 
674	 0,37495701957736 
675	 0,374277201658926 
676	 0,37410378771631 
677	 0,374588345955237 
678	 0,374796900731981 
679	 0,374843515496123 
680	 0,374962370812676 
681	 0,375141580076682 
682	 0,375565131981761 
683	 0,37666732735479 
684	 0,378257136554113 
685	 0,380213336964132 
686	 0,38241664128137 
687	 0,385145543852916 
688	 0,388925902876893 
689	 0,393120163675963 
690	 0,397706782426996 
691	 0,403384542274234 
692	 0,410022246970452 
693	 0,417447942025265 
694	 0,425255371227216 
695	 0,43343053490965 
696	 0,44225513744909 
697	 0,451575475271104 
698	 0,461238038750308 
699	 0,471033520269119 
700	 0,480664938633499 
701	 0,489804720453226 
702	 0,498941496833346 
703	 0,507908417037413 
704	 0,515847204795798 
705	 0,523281933722102 
706	 0,530537035448937 
707	 0,537349843430498 
708	 0,543512982307941 
709	 0,548688032175195 
710	 0,553519940751597 
711	 0,558229452752054 
712	 0,562695724037912 
713	 0,566845292033762 
714	 0,570589724849843 
715	 0,573791287484435 
716	 0,57664261542957 
717	 0,579725379263333 
718	 0,582406154466751 
719	 0,584469719782158 
720	 0,586343533456497 
721	 0,588176887213495 
722	 0,590102351442751 
723	 0,591776217564151 
724	 0,593175180522265 
725	 0,594552867809762 
726	 0,595711752110082 
727	 0,59657833092341 
728	 0,597569044658522 
729	 0,598563731364059 
730	 0,599245702659711 
731	 0,599800094511483 
732	 0,600344090839711 
733	 0,601071424312065 
734	 0,601958634457662 
735	 0,602904713483319 
736	 0,602926984353399 
737	 0,602535090308663 
738	 0,603503270947962 
739	 0,604099005173594 
740	 0,603879626727441 
741	 0,604285446639209 
742	 0,604851011752893 
743	 0,604914286897405 
744	 0,604843313018414 
745	 0,604864647694642 
746	 0,60546845237893 
747	 0,605738908535002 
748	 0,605323427827765 
749	 0,60559947839477 
750	 0,60604310042241 
751	 0,605592643756372 
752	 0,605405965299683 
753	 0,605656428507737 
754	 0,605720188503421 
755	 0,605710582008409 
756	 0,605729553607839 
757	 0,605910382266212 
758	 0,606151550403663 
759	 0,606221216569705 
760	 0,606142516015957 
761	 0,605997055067912 
762	 0,606168186466084 
763	 0,606238767296128 
764	 0,605841299245736 
765	 0,605738409969977 
766	 0,605992796276275 
767	 0,606436811096846 
768	 0,606497492059078 
769	 0,606111137124153 
770	 0,606505890625095 
771	 0,607007116048487 
772	 0,606715949809275 
773	 0,606348103002009 
774	 0,606137233138866 
775	 0,606240508875926 
776	 0,606465083464332 
777	 0,606634022784071 
778	 0,606359958243749 
779	 0,605937523927433 
780	 0,605852492295863 
781	 0,605951149386316 
782	 0,606128561944551 
783	 0,606143042959413 
784	 0,606158891777287 
785	 0,60626729613798 
786	 0,606268239051285 
787	 0,606207197965251 
788	 0,606212076157015 
789	 0,606234959705018 
790	 0,606246923144761 
791	 0,606199132431034 
792	 0,606084216689646 
793	 0,605892633130359 
794	 0,605533074128298 
795	 0,605194177196254 
796	 0,605264290921184 
797	 0,605599968886066 
798	 0,606016468868507 
799	 0,605960176350334 
800	 0,605704148287449 
801	 0,605554107534825 
802	 0,605716494760565 
803	 0,605942292459661 
804	 0,60541518145823 
805	 0,605245759109864 
806	 0,605719173372672 
807	 0,605953439454064 
808	 0,605974489868489 
809	 0,605884269338777 
810	 0,605765286782999 
811	 0,605671753466225 
812	 0,605678217151385 
813	 0,605618611424294 
814	 0,60548215103949 
815	 0,605710714266243 
816	 0,605808416282385 
817	 0,605184147472164 
818	 0,605136733125754 
819	 0,605642628286974 
820	 0,605674827048405 
821	 0,605833406524183 
822	 0,606280093636693 
823	 0,60628486329543 
824	 0,605978905045721 
825	 0,605634950790018 
826	 0,605997801291722 
827	 0,606751555860841 
828	 0,60629471658013 
829	 0,605736406891529 
830	 0,605668307463038 
831	 0,605835060115931 
832	 0,60614906440977 
833	 0,606515134011091 
834	 0,606731229278809 
835	 0,606711651424879 
836	 0,606379767719751 
837	 0,606134510646229 
838	 0,606158061789671 
839	 0,605963070239504 
840	 0,605765406556858 
841	 0,605934532572986 
842	 0,60615850515176 
843	 0,606229233522592 
844	 0,605732668706382 
845	 0,605373231357253 
846	 0,605519137296726 
847	 0,605734766456013 
848	 0,6058454950442 
849	 0,605690811143872 
850	 0,605268549633244 
851	 0,604829160312501 
852	 0,605190218723159 
853	 0,605308867298384 
854	 0,604766802550987 
855	 0,604875969608405 
856	 0,605368044430526 
857	 0,605676768994192 
858	 0,605571983716831 
859	 0,60516555452121 
860	 0,605028150704954 
861	 0,605045202014281 
862	 0,605129610363069 
863	 0,60504342971318 
864	 0,604940993739655 
865	 0,60505650641584 
866	 0,605520485103895 
867	 0,606006472222959 
868	 0,605431193787702 
869	 0,604963904034679 
870	 0,605107852753291 
871	 0,605141477111707 
872	 0,605156564700928 
873	 0,605330931227941 
874	 0,605371702799815 
875	 0,605422603376821 
876	 0,606183536626954 
877	 0,606408234701237 
878	 0,605733063475803 
879	 0,605426843510428 
880	 0,605292062629961 
881	 0,605018863063144 
882	 0,604821214143821 
883	 0,604872467304858 
884	 0,605587330273204 
885	 0,605982946812954 
886	 0,60581371137106 
887	 0,605967991157692 
888	 0,606126790957602 
889	 0,605974278781241 
890	 0,606034633438224 
891	 0,606043116064081 
892	 0,605180855487068 
893	 0,604662131562349 
894	 0,604736372810121 
895	 0,604484456961918 
896	 0,604461171398724 
897	 0,605008187156169 
898	 0,604888757610416 
899	 0,604474316071128 
900	 0,604771150119925 
901	 0,604909559235187 
902	 0,60483253554116 
903	 0,605279077696854 
904	 0,605719502461558 
905	 0,60578028926074 
906	 0,605469803079648 
907	 0,604783776446744 
908	 0,603728545818507 
909	 0,604317436051901 
910	 0,605924465285829 
911	 0,604919263203906 
912	 0,60394883281797 
913	 0,604274820245146 
914	 0,605343331452354 
915	 0,606448528320528 
916	 0,606812846821617 
917	 0,605737861606525 
918	 0,60417593054152 
919	 0,604894956390652 
920	 0,60517856612639 
921	 0,604501325874016 
922	 0,605120865139949 
923	 0,605901337959027 
924	 0,605843308674143 
925	 0,605660680627223 
926	 0,605312701529113 
927	 0,604527647265769 
928	 0,603953871667617 
929	 0,603811055488045 
930	 0,604094427549665 
931	 0,604301163035342 
932	 0,604230417782716 
933	 0,605032353149317 
934	 0,605125733148931 
935	 0,602514614652382 
936	 0,601720997041653 
937	 0,602904440032114 
938	 0,603588638015872 
939	 0,603458252023158 
940	 0,602476253297826 
941	 0,601630360484755 
942	 0,601508981183751 
943	 0,602402192591571 
944	 0,602297755508153 
945	 0,601617187225306 
946	 0,601778868481603 
947	 0,602399178858188 
948	 0,60291961618762 
949	 0,601781009725811 
950	 0,600324529085605 
951	 0,599385366815232 
952	 0,598620863363606 
953	 0,598384675315371 
954	 0,599056862675125 
955	 0,599767488732947 
956	 0,599533720867876 
957	 0,596060008454589 
958	 0,595369171000954 
959	 0,598354721564376 
960	 0,598470259040731 
961	 0,597692159884744 
962	 0,597630877549019 
963	 0,597100566888324 
964	 0,596697458045198 
965	 0,597479399415002 
966	 0,597228608764659 
967	 0,596184230280839 
968	 0,597030632335125 
969	 0,597231163548003 
970	 0,595924471263621 
971	 0,594674195043697 
972	 0,593931019489221 
973	 0,594068267971257 
974	 0,595753990304889 
975	 0,597408782802599 
976	 0,596152292070593 
977	 0,595546613099964 
978	 0,596387298317688 
979	 0,597793790940156 
980	 0,598614901903156 
981	 0,598394159572308 
982	 0,598605358030151 
983	 0,598573182560518 
984	 0,59760779214631 
985	 0,597190155873886 
986	 0,597277443414465 
987	 0,597217163978528 
988	 0,59741539392629 
989	 0,597532837834789 
990	 0,595949312520508 
991	 0,59495182242578 
992	 0,595699028022772 
993	 0,596928531461562 
994	 0,598632475252068 
995	 0,600684290037977 
996	 0,600522787555052 
997	 0,599288098148227 
998	 0,600084024089833 
999	 0,600637555311832 
1000	 0,600855596192276 
1001	 0,602744181973101 
1002	 0,604036856745821 
1003	 0,60396539252311 
1004	 0,605411197687182 
1005	 0,606607653820742 
1006	 0,605716310715111 
1007	 0,60408929461246 
1008	 0,602076516980852 
1009	 0,599663647282655 
1010	 0,602659267200634 
1011	 0,609237181407484 
1012	 0,608670945126888 
1013	 0,60492610986771 
1014	 0,601591097472514 
1015	 0,607724263791 
1016	 0,612401327255436 
1017	 0,607041948946541 
1018	 0,604534161390759 
1019	 0,605374961127828 
1020	 0,607267802810067 
1021	 0,60970166535926 
1022	 0,610247856983741 
1023	 0,602556664819442 
1024	 0,599604189273648 
1025	 0,604218700803124 
1026	 0,606990316559672 
1027	 0,606899272907399 
1028	 0,604440488819366 
1029	 0,607205996532549 
1030	 0,610339600726843 
1031	 0,607604027864637 
1032	 0,605693598785003 
1033	 0,608183070034334 
1034	 0,619598436554525 
1035	 0,621200511857928 
1036	 0,612598807643016 
1037	 0,613108302461132 
1038	 0,612751046781699 
1039	 0,608955277791559 
1040	 0,61172457630992 
1041	 0,615574164927051 
1042	 0,615240198759264 
1043	 0,609443494000174 
1044	 0,605612103725442 
1045	 0,61326082642627 
1046	 0,615496462417368 
1047	 0,61279410145166 
1048	 0,61588708374591 
1049	 0,615769266294798 
1050	 0,612447397374798 
1051	 0,616584474083588 
1052	 0,618151963210506 
1053	 0,613763032123535 
1054	 0,614109567467383 
1055	 0,616014502223815 
1056	 0,616978018970465 
1057	 0,62674728517509 
1058	 0,632753969259296 
1059	 0,618088935201608 
1060	 0,605563057961582 
1061	 0,603737858964282 
1062	 0,619465213457715 
1063	 0,626209717484185 
1064	 0,620150994096904 
1065	 0,620404118683749 
1066	 0,621134263155133 
1067	 0,619573175856306 
1068	 0,613816131238791 
1069	 0,612059322485692 
1070	 0,619002864963414 
1071	 0,62424365871793 
1072	 0,623933432263672 
1073	 0,616681606647594 
1074	 0,622127483430218 
1075	 0,632521557903865 
