Wavelength	PENFOUL00480.asd
325	 0,285079558772004 
326	 0,341589632886582 
327	 0,411515770250646 
328	 0,454311679779763 
329	 0,40763054796639 
330	 0,342761092514881 
331	 0,341259150322759 
332	 0,318678637073889 
333	 0,297108673978066 
334	 0,416933375331229 
335	 0,383180509016392 
336	 0,186123163218832 
337	 0,172620176897837 
338	 0,239287051078723 
339	 0,264151135484396 
340	 0,324052009051581 
341	 0,365190599891258 
342	 0,252538890983937 
343	 0,177286167368115 
344	 0,19446979411955 
345	 0,193480880452405 
346	 0,173185980528379 
347	 0,147039393843459 
348	 0,169061886258786 
349	 0,21710647553592 
350	 0,221279358003321 
351	 0,192854638251451 
352	 0,146172418080703 
353	 0,161461845079919 
354	 0,197085689105317 
355	 0,207629898374505 
356	 0,197513974616048 
357	 0,180849113307012 
358	 0,203156194405614 
359	 0,213153731421663 
360	 0,194076789054094 
361	 0,187505300557393 
362	 0,195776291697847 
363	 0,214117084757546 
364	 0,203327002055053 
365	 0,168592417807656 
366	 0,158009292848212 
367	 0,184153018401612 
368	 0,240448783345471 
369	 0,223710825506673 
370	 0,178883562949792 
371	 0,211050174035256 
372	 0,219088530309638 
373	 0,190008401447106 
374	 0,197439296646643 
375	 0,214499815546911 
376	 0,221673832258683 
377	 0,214091704283225 
378	 0,202797854240927 
379	 0,210823523688463 
380	 0,215362427932693 
381	 0,21054480162159 
382	 0,209135994442809 
383	 0,210282184194562 
384	 0,212437089754051 
385	 0,211145228363935 
386	 0,209572006467312 
387	 0,220704200223399 
388	 0,218030983683696 
389	 0,198430055117679 
390	 0,203014437738251 
391	 0,218961707027473 
392	 0,226948516182793 
393	 0,21413645682627 
394	 0,191581240584884 
395	 0,199340824463276 
396	 0,210983765312915 
397	 0,211397660472735 
398	 0,199377535583204 
399	 0,189033408453842 
400	 0,200925269656696 
401	 0,203716593522407 
402	 0,195684306532201 
403	 0,202263102202852 
404	 0,208277755023326 
405	 0,204409336888588 
406	 0,201713472187561 
407	 0,203046146016689 
408	 0,212313469521429 
409	 0,213374750354264 
410	 0,203933312893587 
411	 0,195493073472283 
412	 0,192861599132945 
413	 0,199271428731482 
414	 0,199426226421799 
415	 0,194946653266092 
416	 0,197578330986403 
417	 0,202587924910534 
418	 0,207001140962003 
419	 0,205879433991346 
420	 0,201607324467401 
421	 0,197415634780906 
422	 0,19775963323738 
423	 0,201892199101569 
424	 0,203472761483285 
425	 0,203323371002678 
426	 0,201985606985276 
427	 0,199082098145453 
428	 0,19696085447597 
429	 0,199952604280139 
430	 0,200276215435015 
431	 0,197468241545563 
432	 0,200478348835997 
433	 0,204251128769709 
434	 0,204188855446082 
435	 0,201812649843069 
436	 0,199829674989095 
437	 0,204873540033874 
438	 0,206956071640399 
439	 0,203256824989397 
440	 0,20327246245999 
441	 0,204997689300778 
442	 0,204852800078123 
443	 0,204526112474393 
444	 0,204373638154779 
445	 0,20421029882241 
446	 0,204878808747569 
447	 0,206678768224184 
448	 0,20769543748405 
449	 0,207861564441814 
450	 0,20750482619815 
451	 0,207620263089263 
452	 0,208548363586236 
453	 0,210068748571028 
454	 0,211339046938804 
455	 0,211576309236432 
456	 0,210918746864485 
457	 0,209400638214342 
458	 0,206679037521448 
459	 0,205148974987448 
460	 0,205957669074738 
461	 0,20862768764582 
462	 0,211057691760418 
463	 0,210628704316573 
464	 0,210399761526721 
465	 0,210893369677139 
466	 0,21107513783536 
467	 0,210790272994463 
468	 0,210101864463481 
469	 0,210465069662783 
470	 0,211563950351921 
471	 0,21230791984691 
472	 0,213688187659419 
473	 0,215135347885682 
474	 0,212911750128432 
475	 0,209894622645366 
476	 0,209080467836624 
477	 0,20937359512966 
478	 0,210139482598239 
479	 0,210105721147204 
480	 0,210657756319265 
481	 0,212231360319483 
482	 0,213501218828687 
483	 0,213377875225473 
484	 0,210428888396258 
485	 0,210390260854456 
486	 0,213169318625487 
487	 0,211742131178187 
488	 0,211110163097172 
489	 0,214480333610386 
490	 0,212693112225202 
491	 0,208094848374249 
492	 0,209252830734497 
493	 0,210327526889688 
494	 0,209825135390679 
495	 0,211075416445059 
496	 0,211567709900881 
497	 0,208365732068704 
498	 0,208019165333197 
499	 0,210199229772679 
500	 0,20879531499231 
501	 0,208309087673256 
502	 0,21088666309847 
503	 0,212458045490999 
504	 0,2126036875304 
505	 0,211490075296946 
506	 0,210811149667903 
507	 0,211294180915717 
508	 0,21344552481659 
509	 0,21457903101587 
510	 0,212626409648953 
511	 0,213925679440905 
512	 0,217385011996697 
513	 0,216961150841386 
514	 0,216677515016465 
515	 0,218043290762633 
516	 0,21923176978362 
517	 0,219636391941625 
518	 0,218657885262172 
519	 0,218439365779248 
520	 0,219288849168803 
521	 0,220193200151965 
522	 0,220235731021182 
523	 0,218957261563149 
524	 0,218637696030839 
525	 0,219463669235778 
526	 0,221203036221493 
527	 0,221903202531958 
528	 0,221111105494378 
529	 0,220907134789048 
530	 0,220829530829347 
531	 0,220179067501423 
532	 0,219896162396229 
533	 0,220167194371231 
534	 0,220946326897083 
535	 0,221394607586619 
536	 0,221082779247981 
537	 0,221063490409838 
538	 0,221223043288815 
539	 0,221044053252582 
540	 0,221129891068728 
541	 0,221520296680875 
542	 0,221484369733298 
543	 0,221454040426655 
544	 0,221863505819683 
545	 0,222232674014312 
546	 0,222368285889984 
547	 0,222005674291391 
548	 0,221647550713772 
549	 0,221687854890371 
550	 0,222930984590899 
551	 0,224165692486119 
552	 0,223439924453577 
553	 0,222521469317813 
554	 0,222045511533891 
555	 0,222171450813952 
556	 0,222788677619015 
557	 0,223693067072296 
558	 0,223749747828045 
559	 0,223051475084148 
560	 0,222291246956332 
561	 0,222002964720383 
562	 0,222279287028175 
563	 0,22193857943432 
564	 0,221269484847126 
565	 0,220791429359647 
566	 0,220830611250166 
567	 0,221337229688122 
568	 0,221756659321018 
569	 0,222152295518719 
570	 0,2226192724699 
571	 0,223575451077848 
572	 0,224999257201432 
573	 0,226792615555606 
574	 0,228082671985783 
575	 0,228850139557334 
576	 0,230872321675112 
577	 0,233238124817032 
578	 0,234812098088363 
579	 0,236660092802699 
580	 0,238582731395726 
581	 0,239340779588669 
582	 0,239527273748666 
583	 0,239666678149969 
584	 0,240897992020724 
585	 0,24249478458145 
586	 0,242904402024243 
587	 0,243444488549196 
588	 0,24437215400258 
589	 0,244942523639345 
590	 0,245634077618793 
591	 0,246859074053314 
592	 0,247520649133002 
593	 0,247655501004432 
594	 0,247929970249113 
595	 0,248403839632731 
596	 0,249023161990322 
597	 0,249107023316536 
598	 0,248795780508639 
599	 0,248404740601381 
600	 0,248216858071488 
601	 0,248165258570105 
602	 0,24756470572014 
603	 0,246989399128785 
604	 0,246835194761135 
605	 0,246044347567997 
606	 0,244913580503072 
607	 0,244662649428769 
608	 0,243997959129958 
609	 0,242773976175278 
610	 0,243178672867568 
611	 0,243556845755669 
612	 0,241697777825614 
613	 0,239996263169327 
614	 0,239221752872819 
615	 0,23983229949277 
616	 0,240174496742874 
617	 0,239264606611005 
618	 0,238715259375592 
619	 0,238560772124822 
620	 0,238396409966315 
621	 0,238236700067915 
622	 0,238081430798207 
623	 0,23805149645518 
624	 0,237868814446717 
625	 0,237298215954237 
626	 0,237834859543572 
627	 0,239243333454336 
628	 0,239967493536005 
629	 0,240319825688876 
630	 0,240484713467489 
631	 0,240760613771244 
632	 0,241373188933766 
633	 0,242631630636293 
634	 0,243413204234689 
635	 0,243629805589254 
636	 0,244374274396857 
637	 0,245586033702934 
638	 0,247136041662445 
639	 0,248405533867348 
640	 0,249373735065055 
641	 0,250344943690115 
642	 0,251277418966457 
643	 0,252161331300246 
644	 0,253019136219739 
645	 0,253656620400915 
646	 0,253832347791434 
647	 0,253616821548632 
648	 0,25312731925502 
649	 0,252564618021995 
650	 0,252337993568155 
651	 0,252557195637926 
652	 0,251554760217843 
653	 0,249833185621159 
654	 0,248925480809842 
655	 0,24794223562664 
656	 0,246574629006656 
657	 0,244692265447393 
658	 0,24281089920492 
659	 0,241438499666549 
660	 0,239461338557694 
661	 0,236954728132803 
662	 0,234702244574246 
663	 0,23316003607284 
664	 0,232403832422675 
665	 0,23106309721054 
666	 0,229324901488798 
667	 0,227725804826676 
668	 0,226576882046071 
669	 0,225902087401423 
670	 0,225232461187867 
671	 0,22486959139876 
672	 0,224951790728336 
673	 0,224070815771432 
674	 0,22265902291095 
675	 0,222229996042543 
676	 0,222424599527919 
677	 0,222949284525699 
678	 0,222760776288186 
679	 0,222408464588875 
680	 0,222648039603292 
681	 0,223253865503304 
682	 0,224064459598051 
683	 0,224684698565686 
684	 0,225471571811782 
685	 0,226716344371671 
686	 0,228779910238746 
687	 0,2314719046533 
688	 0,234365278414289 
689	 0,237658742866027 
690	 0,241569611083028 
691	 0,246689102437362 
692	 0,252516402427367 
693	 0,258625300706869 
694	 0,265848349735847 
695	 0,273991923531178 
696	 0,282289601123361 
697	 0,290807838404615 
698	 0,299668540911734 
699	 0,309686316909295 
700	 0,3203016601501 
701	 0,330716753408752 
702	 0,34061621774435 
703	 0,350010385995219 
704	 0,359517216536724 
705	 0,368424166437736 
706	 0,376386905157236 
707	 0,384476515211588 
708	 0,392633016026526 
709	 0,40053676350298 
710	 0,40725523629685 
711	 0,412814373531761 
712	 0,418886382616134 
713	 0,424792560957271 
714	 0,429827451740198 
715	 0,434443166160914 
716	 0,438750792648105 
717	 0,442788825007821 
718	 0,446658987718227 
719	 0,450356013981736 
720	 0,453620533413842 
721	 0,456455510650055 
722	 0,4589096788665 
723	 0,461106788957419 
724	 0,463196180163905 
725	 0,465502761169686 
726	 0,467575671196645 
727	 0,469169978873903 
728	 0,470737368494678 
729	 0,472194133559634 
730	 0,473271580906225 
731	 0,474304280092808 
732	 0,475398085947464 
733	 0,476467886636134 
734	 0,477621837808584 
735	 0,478893016006708 
736	 0,479420091909683 
737	 0,479565062100861 
738	 0,480635191861623 
739	 0,481584573556761 
740	 0,482083882289608 
741	 0,482662045598253 
742	 0,483129308512639 
743	 0,483232539845026 
744	 0,483365908886519 
745	 0,483690001661492 
746	 0,48443774280398 
747	 0,484843410006645 
748	 0,484604860097685 
749	 0,484834384667058 
750	 0,485290977021828 
751	 0,485384454831002 
752	 0,485719633802967 
753	 0,486303087049288 
754	 0,486532308781692 
755	 0,48677257056182 
756	 0,487264863480541 
757	 0,487639070830571 
758	 0,487783192731748 
759	 0,487552038592047 
760	 0,48761766452834 
761	 0,488081225086597 
762	 0,48824600660008 
763	 0,488194502530916 
764	 0,488062155522809 
765	 0,488149080147346 
766	 0,488489395290564 
767	 0,489087152470688 
768	 0,489210934408522 
769	 0,488709555687973 
770	 0,488620914556545 
771	 0,48889743540876 
772	 0,489356678633564 
773	 0,489547082909598 
774	 0,489452728251757 
775	 0,489374711052318 
776	 0,489525849929872 
777	 0,489915373265002 
778	 0,489688905582381 
779	 0,489294333368359 
780	 0,489516778090552 
781	 0,489825510273276 
782	 0,490072672333137 
783	 0,49024839516362 
784	 0,490465184390041 
785	 0,490732606618405 
786	 0,490432930548951 
787	 0,490041023241718 
788	 0,490552276627125 
789	 0,49091467230113 
790	 0,490898648248886 
791	 0,490989629836195 
792	 0,49106845702947 
793	 0,491032080718725 
794	 0,490904281980342 
795	 0,490757648335155 
796	 0,490688755597293 
797	 0,490946097633505 
798	 0,491504848217005 
799	 0,491880964103749 
800	 0,491895809177707 
801	 0,491464209992356 
802	 0,491391828408805 
803	 0,491694468482621 
804	 0,492004352307324 
805	 0,492159597490794 
806	 0,492167785883539 
807	 0,492540520610129 
808	 0,493066585554763 
809	 0,493460767970873 
810	 0,493347440861887 
811	 0,492944824439599 
812	 0,493058767318091 
813	 0,493322566842537 
814	 0,493523638445729 
815	 0,493325383278157 
816	 0,493089500733165 
817	 0,493271173914116 
818	 0,493414107193068 
819	 0,49360946097218 
820	 0,494489043418455 
821	 0,495174922164919 
822	 0,495222062590375 
823	 0,494856165381749 
824	 0,494446400804131 
825	 0,494429975603868 
826	 0,495114852424319 
827	 0,496052894091008 
828	 0,495583266699931 
829	 0,49530446785044 
830	 0,495868303255988 
831	 0,495572381492077 
832	 0,495136104845682 
833	 0,495756917167283 
834	 0,496091349019352 
835	 0,495972321336127 
836	 0,495986349141172 
837	 0,496128779085292 
838	 0,496341428691315 
839	 0,496126317531437 
840	 0,495885252780643 
841	 0,496248893660703 
842	 0,496384179763688 
843	 0,496251582475579 
844	 0,496444249968007 
845	 0,496694089794472 
846	 0,49685995277302 
847	 0,497078586499481 
848	 0,497146735419722 
849	 0,496775272944082 
850	 0,496641066158454 
851	 0,496816677063405 
852	 0,496893653451875 
853	 0,497042665859853 
854	 0,497267089196829 
855	 0,49694193390899 
856	 0,496687877832784 
857	 0,497417080205062 
858	 0,497661976349539 
859	 0,497302485561104 
860	 0,497177394565219 
861	 0,497158624622943 
862	 0,497199505704299 
863	 0,497291964398169 
864	 0,497428799347052 
865	 0,497606408699908 
866	 0,498108412054179 
867	 0,498799398700827 
868	 0,499169932412835 
869	 0,499084126815328 
870	 0,498578307514499 
871	 0,498276645210015 
872	 0,498390321147292 
873	 0,499043818811345 
874	 0,499013416596471 
875	 0,498555065255194 
876	 0,499314718158818 
877	 0,499764584716241 
878	 0,499383547774036 
879	 0,499164743449847 
880	 0,499068118338602 
881	 0,498991251604424 
882	 0,499437995585711 
883	 0,500051082254025 
884	 0,499591273811622 
885	 0,499513768742572 
886	 0,500117105064577 
887	 0,500000876067927 
888	 0,499812908464584 
889	 0,500194724403692 
890	 0,500471506068218 
891	 0,500508807519881 
892	 0,500238808113368 
893	 0,500411215986178 
894	 0,501000413150294 
895	 0,500647110003215 
896	 0,500377098158545 
897	 0,500938233701265 
898	 0,501071147635211 
899	 0,500944248761396 
900	 0,501214167624513 
901	 0,501170626738027 
902	 0,500922781804169 
903	 0,501680468982431 
904	 0,502193623728901 
905	 0,501719427669267 
906	 0,500955283199703 
907	 0,500585714286576 
908	 0,501404290274084 
909	 0,502136848349591 
910	 0,502322721365821 
911	 0,501554121435023 
912	 0,501410590312002 
913	 0,502406401530579 
914	 0,50257602891694 
915	 0,502422659121029 
916	 0,502673226139962 
917	 0,502646568731511 
918	 0,502493153502484 
919	 0,502964188346791 
920	 0,503081414558757 
921	 0,502587854195429 
922	 0,501996982371466 
923	 0,501668871660055 
924	 0,501853381179116 
925	 0,502088420173611 
926	 0,502296106278393 
927	 0,502519625241714 
928	 0,502290042997918 
929	 0,501679707138059 
930	 0,501300677370498 
931	 0,501784953314662 
932	 0,503208652746011 
933	 0,503649767543468 
934	 0,502803340977056 
935	 0,500699915110257 
936	 0,500048719570469 
937	 0,500850383050882 
938	 0,50125779929826 
939	 0,501085397872159 
940	 0,500259646634435 
941	 0,499091635172006 
942	 0,498950352222092 
943	 0,500704473827014 
944	 0,50056088575527 
945	 0,499344203166932 
946	 0,499831582497647 
947	 0,499644790982084 
948	 0,498484934505719 
949	 0,497763425204663 
950	 0,496947876815432 
951	 0,495890117486131 
952	 0,495628624342524 
953	 0,495324970062989 
954	 0,493951652005533 
955	 0,494206371625925 
956	 0,495244830371639 
957	 0,493244080604712 
958	 0,492567734239225 
959	 0,494146910126097 
960	 0,495026670719237 
961	 0,494808621517522 
962	 0,493479381537332 
963	 0,492954583529709 
964	 0,493125331152665 
965	 0,493346683931834 
966	 0,492304825280626 
967	 0,491001479042 
968	 0,493887832349844 
969	 0,495290665680819 
970	 0,493334619685769 
971	 0,492409735924338 
972	 0,491670621092174 
973	 0,490348734279744 
974	 0,491425467004656 
975	 0,493379529266225 
976	 0,492704344905459 
977	 0,492081294183864 
978	 0,492403290924374 
979	 0,494184545110591 
980	 0,495406842181297 
981	 0,495106133119647 
982	 0,494389849640984 
983	 0,494068650385169 
984	 0,494746196165119 
985	 0,494501765638258 
986	 0,494060153088846 
987	 0,495555772544409 
988	 0,49573065466149 
989	 0,494698484776537 
990	 0,496581286226707 
991	 0,497542570624111 
992	 0,496110100481809 
993	 0,49641862829216 
994	 0,497549433798543 
995	 0,498159104883319 
996	 0,498471457729912 
997	 0,498139005609158 
998	 0,49642687237842 
999	 0,496376213724984 
1000	 0,498307126377842 
1001	 0,500074991353087 
1002	 0,500246039626177 
1003	 0,498815823500307 
1004	 0,500530064842548 
1005	 0,502934204033443 
1006	 0,503180383349373 
1007	 0,500766404778488 
1008	 0,497745698206312 
1009	 0,497685835630788 
1010	 0,500901899719287 
1011	 0,505246148443679 
1012	 0,503666139908429 
1013	 0,501567169857422 
1014	 0,50169263654532 
1015	 0,504828669808525 
1016	 0,506641762609796 
1017	 0,504140411744527 
1018	 0,505296911247846 
1019	 0,507509827315087 
1020	 0,505350898573798 
1021	 0,504490249933983 
1022	 0,505431564960248 
1023	 0,505842943680341 
1024	 0,504717488532337 
1025	 0,502824843700656 
1026	 0,505553882233253 
1027	 0,508544892370546 
1028	 0,508865694541837 
1029	 0,507862430136392 
1030	 0,506968732522547 
1031	 0,507729426957264 
1032	 0,5096413282372 
1033	 0,512934500858221 
1034	 0,518235137917077 
1035	 0,520148397599231 
1036	 0,517848043472368 
1037	 0,514600390198371 
1038	 0,509737976409572 
1039	 0,505497146492802 
1040	 0,5131256804358 
1041	 0,518346398593947 
1042	 0,510861522270111 
1043	 0,511129217993163 
1044	 0,517697649668116 
1045	 0,524080597956571 
1046	 0,514552582087535 
1047	 0,498780562417828 
1048	 0,508938315103013 
1049	 0,517727322904182 
1050	 0,518727571149273 
1051	 0,519485397689924 
1052	 0,520124882278849 
1053	 0,520924929073313 
1054	 0,52148671373088 
1055	 0,52322117999199 
1056	 0,526468725319237 
1057	 0,523516807600466 
1058	 0,519253411815649 
1059	 0,521073518978361 
1060	 0,514832304500201 
1061	 0,505298903618551 
1062	 0,510235702665057 
1063	 0,516844757062895 
1064	 0,520533069898706 
1065	 0,518095440832955 
1066	 0,523446195023698 
1067	 0,536749903792407 
1068	 0,523126394200596 
1069	 0,510419562311743 
1070	 0,518399158693419 
1071	 0,530009713779138 
1072	 0,52967710320456 
1073	 0,505051011522499 
1074	 0,506040684444314 
1075	 0,521451320749439 
