Wavelength	PENFOUL00014.asd
325	 0,163621041694354 
326	 0,339013746887747 
327	 0,407651123847261 
328	 0,295371572476576 
329	 0,316785014691479 
330	 0,348496882283457 
331	 0,296243887769772 
332	 0,25139429529541 
333	 0,213118015567809 
334	 0,252485181424301 
335	 0,288235061362278 
336	 0,278167973088509 
337	 0,149232836935661 
338	 6,07912822353164E-02 
339	 0,154678358604026 
340	 0,149418659651241 
341	 9,58944547266906E-02 
342	 0,17048873816261 
343	 0,185589622579741 
344	 0,1022957340789 
345	 0,114663329984661 
346	 0,133847448889079 
347	 6,98916220808138E-02 
348	 8,65986701638545E-02 
349	 0,150424277029459 
350	 0,126155896407057 
351	 0,0724338290766 
352	 2,10806164063122E-02 
353	 5,12144859133516E-02 
354	 9,09538355826755E-02 
355	 6,90642639353567E-02 
356	 7,51583696467979E-02 
357	 0,105464355824161 
358	 9,58138666387003E-02 
359	 6,20824155958136E-02 
360	 1,93560619427476E-02 
361	 3,53635144815739E-02 
362	 7,77041215122165E-02 
363	 8,37988484489267E-02 
364	 7,86303682987816E-02 
365	 7,18505893817062E-02 
366	 7,79868937731316E-02 
367	 8,77156865066172E-02 
368	 9,34965303065217E-02 
369	 8,41858625803262E-02 
370	 7,10113716929047E-02 
371	 7,79117511547501E-02 
372	 6,48931530745748E-02 
373	 3,48314689305668E-02 
374	 0,057242744366959 
375	 7,21200585149394E-02 
376	 4,23293652426362E-02 
377	 5,05994437415643E-02 
378	 8,01228667068404E-02 
379	 7,31847246750121E-02 
380	 5,10900415932512E-02 
381	 3,09627216205505E-02 
382	 5,50266171881655E-02 
383	 7,98144149393046E-02 
384	 6,68280785537851E-02 
385	 5,15763227479971E-02 
386	 4,51427937338486E-02 
387	 5,69404035207929E-02 
388	 6,74554019687884E-02 
389	 6,75144270707924E-02 
390	 5,55668409344795E-02 
391	 4,88411325147316E-02 
392	 6,71748054087836E-02 
393	 6,16387595623544E-02 
394	 0,036833388998294 
395	 3,68259615742707E-02 
396	 4,36620911909959E-02 
397	 4,74857661280186E-02 
398	 4,82713373196246E-02 
399	 0,050065089034137 
400	 5,96662661092442E-02 
401	 5,67014385911559E-02 
402	 4,33336897000242E-02 
403	 4,74262663280383E-02 
404	 5,58477047433693E-02 
405	 0,05855038850524 
406	 0,049033282095896 
407	 3,73954734529022E-02 
408	 4,74678564082328E-02 
409	 5,18972437066274E-02 
410	 4,60283625816373E-02 
411	 4,76698446954954E-02 
412	 5,14090776615026E-02 
413	 5,12885535174154E-02 
414	 4,51885805322162E-02 
415	 3,82641002677656E-02 
416	 4,51991954234107E-02 
417	 5,07749382918182E-02 
418	 4,96335668453318E-02 
419	 5,09544798040057E-02 
420	 5,01967813197208E-02 
421	 4,07643797586136E-02 
422	 4,04520492407119E-02 
423	 4,82914725725976E-02 
424	 4,60893614387299E-02 
425	 4,29118009727635E-02 
426	 4,38829687424608E-02 
427	 4,40342691019966E-02 
428	 4,27307664135391E-02 
429	 3,97743485124275E-02 
430	 3,76388708672491E-02 
431	 3,79668048303114E-02 
432	 4,39066325079165E-02 
433	 4,91064802558444E-02 
434	 0,04832744444815 
435	 4,72318182467944E-02 
436	 4,67172944140587E-02 
437	 4,59919495588905E-02 
438	 4,60723590733515E-02 
439	 4,72744435046706E-02 
440	 4,91842023294697E-02 
441	 4,99305716114019E-02 
442	 4,73149363920243E-02 
443	 0,044484180530726 
444	 4,26843210676379E-02 
445	 4,28695724872001E-02 
446	 4,40244385560954E-02 
447	 4,53066533711603E-02 
448	 4,57200631740865E-02 
449	 4,58175886370992E-02 
450	 4,69712663051453E-02 
451	 4,75608471802898E-02 
452	 4,75293019374855E-02 
453	 4,89340556175462E-02 
454	 5,05131453620908E-02 
455	 5,09080975303175E-02 
456	 4,86762262677904E-02 
457	 4,48822900838055E-02 
458	 4,26791547487534E-02 
459	 4,20918881522362E-02 
460	 4,30788557911771E-02 
461	 0,04429650748429 
462	 4,61490257592953E-02 
463	 4,94042126821881E-02 
464	 4,95248710739854E-02 
465	 4,75234663459712E-02 
466	 5,16736694708717E-02 
467	 5,34700679338756E-02 
468	 4,83302051786559E-02 
469	 4,84449342438598E-02 
470	 5,16065700332277E-02 
471	 4,96927385555602E-02 
472	 4,94408947500181E-02 
473	 5,18554137371255E-02 
474	 5,17102867535215E-02 
475	 4,98386884891964E-02 
476	 4,75000039205939E-02 
477	 4,77324702688035E-02 
478	 5,01570025489128E-02 
479	 5,22500285178296E-02 
480	 5,22508207175692E-02 
481	 0,049763906988221 
482	 4,87482175286272E-02 
483	 4,92125454864089E-02 
484	 5,04621374287474E-02 
485	 5,13157403184119E-02 
486	 5,12879944813068E-02 
487	 4,99723730560722E-02 
488	 0,049864763306985 
489	 5,25688655802822E-02 
490	 5,40692332996165E-02 
491	 5,40218238441395E-02 
492	 5,33124546029111E-02 
493	 5,21992395562223E-02 
494	 5,11712881366146E-02 
495	 5,17416235913132E-02 
496	 5,20949638206843E-02 
497	 5,01457915832756E-02 
498	 5,06129477904658E-02 
499	 5,28767085360537E-02 
500	 5,15367548256287E-02 
501	 5,06819011416842E-02 
502	 5,23151202722617E-02 
503	 5,29642535225965E-02 
504	 5,25224933750012E-02 
505	 0,051546150311086 
506	 5,08798173724925E-02 
507	 5,10101029189299E-02 
508	 5,25279742551375E-02 
509	 5,38143528342699E-02 
510	 5,35453346909822E-02 
511	 5,43578038679705E-02 
512	 5,57719972881248E-02 
513	 5,52222711010585E-02 
514	 5,47785769200889E-02 
515	 5,51715779978361E-02 
516	 5,48532134342479E-02 
517	 5,44469543315384E-02 
518	 5,50091511974634E-02 
519	 5,52902553833716E-02 
520	 5,53551279030545E-02 
521	 0,056839634853977 
522	 5,76382042273565E-02 
523	 5,63992612617875E-02 
524	 5,59503360779156E-02 
525	 0,056275323608149 
526	 5,61368123314834E-02 
527	 5,67109925046664E-02 
528	 5,81151735133109E-02 
529	 5,90607745242866E-02 
530	 0,059159345224152 
531	 5,81298341714247E-02 
532	 5,73828400002223E-02 
533	 5,74224547059827E-02 
534	 5,87085059628165E-02 
535	 0,059339487804136 
536	 5,83952459749078E-02 
537	 5,84791231787372E-02 
538	 5,92786043864619E-02 
539	 5,96048456293762E-02 
540	 5,95217618668948E-02 
541	 5,90704679553122E-02 
542	 5,83407482956103E-02 
543	 5,84135466706306E-02 
544	 6,01890502802579E-02 
545	 6,07202319227695E-02 
546	 6,00807747038528E-02 
547	 0,060359314045698 
548	 0,060272897934086 
549	 5,95413683978634E-02 
550	 6,04982852210207E-02 
551	 6,20998908561108E-02 
552	 6,23992272407843E-02 
553	 6,21011111157908E-02 
554	 6,16691766508114E-02 
555	 6,21623993709301E-02 
556	 6,29000661216497E-02 
557	 6,32616281530139E-02 
558	 6,31377727143157E-02 
559	 6,27915944329092E-02 
560	 6,29219007384501E-02 
561	 6,31255352308454E-02 
562	 6,32987977217275E-02 
563	 6,39270329645117E-02 
564	 6,41277920771609E-02 
565	 6,27179367627143E-02 
566	 6,17216072996897E-02 
567	 6,17201907856742E-02 
568	 6,25911153763263E-02 
569	 0,063666368219321 
570	 6,44151423494034E-02 
571	 0,064666515847799 
572	 6,47882416337247E-02 
573	 6,57763628590242E-02 
574	 6,58219417624813E-02 
575	 6,48166565459455E-02 
576	 6,57746203382236E-02 
577	 0,067144503552723 
578	 6,69934766252622E-02 
579	 6,76195837183896E-02 
580	 6,88783394856859E-02 
581	 6,86810725025831E-02 
582	 6,84047806303017E-02 
583	 6,88709116183201E-02 
584	 6,99503801682508E-02 
585	 7,10021156277629E-02 
586	 7,09778116081675E-02 
587	 0,07068522449349 
588	 7,04436367641985E-02 
589	 7,03045011993186E-02 
590	 7,06962425097189E-02 
591	 7,19035996864531E-02 
592	 7,20020434059831E-02 
593	 7,12625748489778E-02 
594	 7,15253176736348E-02 
595	 7,18487231656103E-02 
596	 7,18452427596081E-02 
597	 0,071793803688571 
598	 7,18827321343433E-02 
599	 0,072353827422394 
600	 7,27223106866837E-02 
601	 7,28235540978952E-02 
602	 7,26153074670285E-02 
603	 7,25500744812181E-02 
604	 7,28943105576458E-02 
605	 7,23173308888027E-02 
606	 7,12941016187465E-02 
607	 7,15366416946473E-02 
608	 7,16849401810462E-02 
609	 7,14479101688752E-02 
610	 7,22869630198821E-02 
611	 7,29987214887384E-02 
612	 7,20026876134684E-02 
613	 7,12223330901317E-02 
614	 7,10007354070019E-02 
615	 7,06130094181608E-02 
616	 7,08199853606829E-02 
617	 7,18907167469207E-02 
618	 7,16949077398904E-02 
619	 7,09007721537217E-02 
620	 7,14861226679812E-02 
621	 7,17845440789238E-02 
622	 7,14243178192824E-02 
623	 7,13569265886526E-02 
624	 7,12667156577939E-02 
625	 7,08242686889965E-02 
626	 7,14330167885617E-02 
627	 7,26098028867499E-02 
628	 7,20438564490204E-02 
629	 7,16327811618781E-02 
630	 7,22737536103429E-02 
631	 7,29367103560109E-02 
632	 7,32401760912221E-02 
633	 7,27690884288451E-02 
634	 7,24198154710434E-02 
635	 7,25616113687928E-02 
636	 7,33375562640745E-02 
637	 7,43752108246918E-02 
638	 7,52758108630388E-02 
639	 7,52228217733617E-02 
640	 7,46531126697829E-02 
641	 7,50346964976144E-02 
642	 7,55568829140785E-02 
643	 7,58290264174869E-02 
644	 7,54207083261444E-02 
645	 7,51457520489356E-02 
646	 7,60992417381205E-02 
647	 7,63355084238804E-02 
648	 7,56495345523576E-02 
649	 0,075104434763307 
650	 7,49468337497195E-02 
651	 7,52890795979441E-02 
652	 7,54300666325808E-02 
653	 7,53216785225806E-02 
654	 7,51010238531882E-02 
655	 7,50100398641412E-02 
656	 7,49970891922778E-02 
657	 7,42576013010124E-02 
658	 7,37000555325877E-02 
659	 7,42378800640427E-02 
660	 0,07383526308986 
661	 7,26232788205722E-02 
662	 7,22540837647945E-02 
663	 7,21103248657488E-02 
664	 7,18938835669947E-02 
665	 0,071776148269968 
666	 7,13260202940078E-02 
667	 6,98127657744538E-02 
668	 6,92177261754225E-02 
669	 6,98575618432964E-02 
670	 7,05777129040463E-02 
671	 7,07475648475958E-02 
672	 6,99814315216131E-02 
673	 6,97807139903769E-02 
674	 7,00748293617122E-02 
675	 6,99155118433981E-02 
676	 7,02901867826188E-02 
677	 7,12685636688296E-02 
678	 0,071281367008175 
679	 7,07530678094887E-02 
680	 7,03502376254263E-02 
681	 7,05465480574041E-02 
682	 7,12920512696082E-02 
683	 7,20268557993928E-02 
684	 7,24489029568861E-02 
685	 7,24677989567109E-02 
686	 0,072991428525924 
687	 7,39224427292878E-02 
688	 7,48914297223621E-02 
689	 7,55032941713377E-02 
690	 7,59238731742896E-02 
691	 7,74630997827227E-02 
692	 7,92709289045875E-02 
693	 8,05894667252773E-02 
694	 8,25255360917726E-02 
695	 8,49414287306677E-02 
696	 0,087022161828848 
697	 8,89602535545032E-02 
698	 9,09687070006032E-02 
699	 9,38796576623823E-02 
700	 9,71815763997059E-02 
701	 0,100121822915244 
702	 0,103206838242022 
703	 0,106368556331017 
704	 0,108982495399435 
705	 0,111803276761448 
706	 0,11526652589813 
707	 0,118716894379516 
708	 0,12188232776059 
709	 0,124456426871902 
710	 0,12701313830212 
711	 0,129597793649301 
712	 0,131505101084602 
713	 0,133274494429664 
714	 0,135410560870749 
715	 0,137544378052544 
716	 0,139455264335261 
717	 0,140720558090629 
718	 0,142111535234499 
719	 0,143873126456032 
720	 0,145279188999375 
721	 0,146530897464268 
722	 0,147974217457374 
723	 0,148863841393952 
724	 0,14935961632999 
725	 0,150599600556 
726	 0,151784389721919 
727	 0,152467575234422 
728	 0,153377200684374 
729	 0,154149243937437 
730	 0,15390521430849 
731	 0,154354430290874 
732	 0,155624956214466 
733	 0,155798160932369 
734	 0,155805264419582 
735	 0,156466048473077 
736	 0,156713580461105 
737	 0,156753215069547 
738	 0,157572659592225 
739	 0,15836170142428 
740	 0,158799409385027 
741	 0,159004971802115 
742	 0,159041944176709 
743	 0,158988521293283 
744	 0,159350992295546 
745	 0,160090752120158 
746	 0,16080316215647 
747	 0,160984227401516 
748	 0,160515588799771 
749	 0,160790640013631 
750	 0,16131941775518 
751	 0,161066103018344 
752	 0,161318503017242 
753	 0,162061352354007 
754	 0,161843598362887 
755	 0,161677764246458 
756	 0,162238152224576 
757	 0,162374568056971 
758	 0,162279495244704 
759	 0,162740435315655 
760	 0,162856944925565 
761	 0,162587529299863 
762	 0,163176879651569 
763	 0,16381637168497 
764	 0,163718096392392 
765	 0,16359313052709 
766	 0,163598004826377 
767	 0,163765701329903 
768	 0,163968388714801 
769	 0,164121762632343 
770	 0,164102846346537 
771	 0,164089630389902 
772	 0,16429824953079 
773	 0,164501197381543 
774	 0,164679670254587 
775	 0,164939912281031 
776	 0,165252322402421 
777	 0,165556525002992 
778	 0,165574215288769 
779	 0,165486350145452 
780	 0,165594973023615 
781	 0,165895124432088 
782	 0,166246215696515 
783	 0,166147660549923 
784	 0,166031506623227 
785	 0,166177979084501 
786	 0,16633703757568 
787	 0,166488235114799 
788	 0,16665120667176 
789	 0,166900299438347 
790	 0,167169633657475 
791	 0,167120678435255 
792	 0,166968941531852 
793	 0,166921339165623 
794	 0,167168784388796 
795	 0,167505652887474 
796	 0,167413533958236 
797	 0,167386453644828 
798	 0,167579331632237 
799	 0,167913979953538 
800	 0,168073306523351 
801	 0,16781733666521 
802	 0,16804056419982 
803	 0,168587737874536 
804	 0,168635258513604 
805	 0,168579916147102 
806	 0,168568798419793 
807	 0,168624581042731 
808	 0,168752331876067 
809	 0,168943001479619 
810	 0,169041894574742 
811	 0,169022861030312 
812	 0,168854497707157 
813	 0,169030151055005 
814	 0,169621126016208 
815	 0,169678662412831 
816	 0,169442785832152 
817	 0,169310027748425 
818	 0,169488606149619 
819	 0,169875230735717 
820	 0,170004518414755 
821	 0,170007804160188 
822	 0,169946370660361 
823	 0,169825069371629 
824	 0,169784496861392 
825	 0,169992415178988 
826	 0,170545824093618 
827	 0,171110416932736 
828	 0,170545356991497 
829	 0,170294119956488 
830	 0,170919769024511 
831	 0,170645396374838 
832	 0,170207588550881 
833	 0,170844970251848 
834	 0,170778024682663 
835	 0,170120890121568 
836	 0,170780153524158 
837	 0,171223298520014 
838	 0,170762019403683 
839	 0,170809541504269 
840	 0,171162237192375 
841	 0,171314095351982 
842	 0,171233214973538 
843	 0,171051028273667 
844	 0,171265039246175 
845	 0,171467674507783 
846	 0,171502745568337 
847	 0,172007071408396 
848	 0,172452732673625 
849	 0,172026767083697 
850	 0,171962098829528 
851	 0,172327652893918 
852	 0,172292344488956 
853	 0,172008027043935 
854	 0,171642858459615 
855	 0,171781776417048 
856	 0,172070095802401 
857	 0,171936443057919 
858	 0,171772740547819 
859	 0,171724791523227 
860	 0,171964121529668 
861	 0,172109065850325 
862	 0,171980894097163 
863	 0,171778062575192 
864	 0,171953402732459 
865	 0,173019271455985 
866	 0,17308084225222 
867	 0,172259756156099 
868	 0,172357718011751 
869	 0,172753805389222 
870	 0,173060471628375 
871	 0,172663381547879 
872	 0,172254482609895 
873	 0,172700766397237 
874	 0,172774785516581 
875	 0,172494653595 
876	 0,172679597064931 
877	 0,17313014985889 
878	 0,173594745057718 
879	 0,173131179576325 
880	 0,172600030540988 
881	 0,172955782505888 
882	 0,172812872768153 
883	 0,172433221698782 
884	 0,17333695443332 
885	 0,173670795473931 
886	 0,173046189736808 
887	 0,173189172748639 
888	 0,173578467716172 
889	 0,173670652424167 
890	 0,174194072615842 
891	 0,174762415509968 
892	 0,174244569084503 
893	 0,174083161039951 
894	 0,174580862887065 
895	 0,174890310575498 
896	 0,174677562532262 
897	 0,173843238473619 
898	 0,17380910792005 
899	 0,174273266090071 
900	 0,174296962940712 
901	 0,17401953386892 
902	 0,173682596340972 
903	 0,174110994938327 
904	 0,174513618619785 
905	 0,174365225925461 
906	 0,173713214897477 
907	 0,173298662921986 
908	 0,174117467579217 
909	 0,174653888600224 
910	 0,174639335802005 
911	 0,17454127786541 
912	 0,174388173838926 
913	 0,174297388519191 
914	 0,174695784047623 
915	 0,175182318882393 
916	 0,17526529436958 
917	 0,174857072284868 
918	 0,174389263647503 
919	 0,175058043200216 
920	 0,175156097662165 
921	 0,174496869372967 
922	 0,175270487267423 
923	 0,17607972901454 
924	 0,17571657807388 
925	 0,174987518721917 
926	 0,174351703234497 
927	 0,174369724963926 
928	 0,174472564179191 
929	 0,17447834668346 
930	 0,174324492091571 
931	 0,174462958116832 
932	 0,17509298781022 
933	 0,175676216204574 
934	 0,175944755534192 
935	 0,175670383215771 
936	 0,175327613365291 
937	 0,17499830572262 
938	 0,174386625116259 
939	 0,174773799847108 
940	 0,176053076281926 
941	 0,174938213977847 
942	 0,173985024275719 
943	 0,175346748948026 
944	 0,175021283900056 
945	 0,174052833153123 
946	 0,175622239762953 
947	 0,176018301568706 
948	 0,174856704888023 
949	 0,17481545517038 
950	 0,174986885588795 
951	 0,174784301418627 
952	 0,173936436103753 
953	 0,172896128772346 
954	 0,172271052801028 
955	 0,172421317252155 
956	 0,173071653828387 
957	 0,173328841937742 
958	 0,173468178079307 
959	 0,173568378612443 
960	 0,173817573742685 
961	 0,173412261487142 
962	 0,172057601166136 
963	 0,172718279383444 
964	 0,173819215993247 
965	 0,172392086009814 
966	 0,171415931860265 
967	 0,171685266391949 
968	 0,173415115743425 
969	 0,17402747294644 
970	 0,172570369388822 
971	 0,170734981470291 
972	 0,169773262935337 
973	 0,17061773111025 
974	 0,171884646068676 
975	 0,17293954322126 
976	 0,173199365317404 
977	 0,173186189958224 
978	 0,173159167041917 
979	 0,173215799342203 
980	 0,174535612053204 
981	 0,17693681892598 
982	 0,175969794425607 
983	 0,17411611963971 
984	 0,174193223812124 
985	 0,174373749889799 
986	 0,174525684849301 
987	 0,175001787217696 
988	 0,174713352739555 
989	 0,173875745586586 
990	 0,174358251437842 
991	 0,175245620746318 
992	 0,175994650309229 
993	 0,176680107961701 
994	 0,176683507433925 
995	 0,175649196844867 
996	 0,177362791047851 
997	 0,179975007156462 
998	 0,178705408851836 
999	 0,176368562241307 
1000	 0,174624550706752 
1001	 0,176094984674757 
1002	 0,177822868948719 
1003	 0,178686154046926 
1004	 0,182321658582707 
1005	 0,183810343086036 
1006	 0,178973201854283 
1007	 0,178064644277235 
1008	 0,179505628830718 
1009	 0,177173539582276 
1010	 0,178255499370455 
1011	 0,181642617219991 
1012	 0,177102685540302 
1013	 0,17507327777894 
1014	 0,179112938426541 
1015	 0,182171977497905 
1016	 0,182320549035524 
1017	 0,17913347970847 
1018	 0,18129647365943 
1019	 0,184946647623596 
1020	 0,182599335080449 
1021	 0,178843593712198 
1022	 0,176011435013038 
1023	 0,177362183682634 
1024	 0,178593858702061 
1025	 0,178940968334427 
1026	 0,182298322064419 
1027	 0,185356233926085 
1028	 0,185786603350028 
1029	 0,183703234969258 
1030	 0,181302842947857 
1031	 0,181102346011005 
1032	 0,18085875664738 
1033	 0,182652378760621 
1034	 0,191578473006319 
1035	 0,191844410100415 
1036	 0,182826412572248 
1037	 0,178998580220872 
1038	 0,178601665742445 
1039	 0,18057952698886 
1040	 0,182612414181202 
1041	 0,181848721009901 
1042	 0,177869765074611 
1043	 0,186412582345389 
1044	 0,197386712450245 
1045	 0,194643358487111 
1046	 0,187846622071208 
1047	 0,182703945463173 
1048	 0,18819957227526 
1049	 0,186119994187671 
1050	 0,175674572933804 
1051	 0,176605103008309 
1052	 0,182565062451196 
1053	 0,18811543155691 
1054	 0,183449887545685 
1055	 0,17928880082629 
1056	 0,185015122329699 
1057	 0,190042254490302 
1058	 0,196162667536297 
1059	 0,207279842142604 
1060	 0,205739483968266 
1061	 0,193321395278151 
1062	 0,183218301072861 
1063	 0,186406617427881 
1064	 0,199655526124136 
1065	 0,196548792486406 
1066	 0,194065011518715 
1067	 0,198407877824621 
1068	 0,199111472581407 
1069	 0,198946048658261 
1070	 0,19898890870939 
1071	 0,18850903906112 
1072	 0,176662867734542 
1073	 0,176759932864766 
1074	 0,181673584662746 
1075	 0,188218229629267 
