Wavelength	PENFOUL00060.asd
325	 0,544313088233517 
326	 0,569171478518832 
327	 0,472410063579667 
328	 0,308857987517793 
329	 0,364822284653848 
330	 0,453829202852299 
331	 0,411821166545143 
332	 0,425109516631178 
333	 0,491285779848663 
334	 0,551742215154045 
335	 0,548670188949584 
336	 0,485203873720546 
337	 0,426519897511887 
338	 0,411703305820204 
339	 0,464483025424534 
340	 0,474388139846027 
341	 0,444387998879632 
342	 0,394455710823547 
343	 0,368428013587234 
344	 0,376745770859774 
345	 0,366395689719405 
346	 0,34141892559612 
347	 0,315946433659417 
348	 0,365881963027762 
349	 0,443281890479523 
350	 0,399140286486672 
351	 0,332198755388065 
352	 0,290425163632851 
353	 0,343352139769167 
354	 0,394994435772382 
355	 0,357496841138502 
356	 0,363329515285261 
357	 0,408705913492291 
358	 0,39767819299621 
359	 0,371424294426091 
360	 0,348671087503013 
361	 0,335350101439887 
362	 0,333640476788164 
363	 0,343148516219312 
364	 0,372523477439281 
365	 0,408247258711906 
366	 0,389268032506338 
367	 0,368618443197106 
368	 0,376062488972108 
369	 0,368456253089471 
370	 0,355908713108264 
371	 0,366222254056628 
372	 0,369705383534428 
373	 0,363239382456897 
374	 0,374166494050496 
375	 0,376422806052524 
376	 0,35480192627752 
377	 0,360130233852173 
378	 0,381697335517519 
379	 0,382429996062023 
380	 0,380573219042701 
381	 0,382131812659577 
382	 0,390648998884906 
383	 0,393192111095761 
384	 0,379139699839107 
385	 0,369800656377564 
386	 0,36961842714564 
387	 0,376605290908321 
388	 0,38933038940077 
389	 0,402589899271008 
390	 0,397702143829007 
391	 0,389593562403118 
392	 0,397223524231578 
393	 0,395846046950675 
394	 0,386767076092846 
395	 0,389004511625572 
396	 0,393337421062615 
397	 0,394825505412591 
398	 0,394600250884778 
399	 0,395760599265654 
400	 0,403108877263929 
401	 0,40101733440297 
402	 0,391565507446528 
403	 0,399420059409543 
404	 0,402468033204682 
405	 0,388720887779354 
406	 0,389230006027549 
407	 0,398573638367659 
408	 0,396610162666691 
409	 0,395231526854406 
410	 0,396703239213167 
411	 0,396533040758965 
412	 0,393304518793774 
413	 0,386569471000202 
414	 0,387961679837631 
415	 0,394677968904612 
416	 0,393220879767965 
417	 0,394449056083202 
418	 0,401149262410255 
419	 0,403834255002505 
420	 0,401850956974685 
421	 0,395328452517025 
422	 0,397180777686142 
423	 0,405565632584903 
424	 0,403480063792517 
425	 0,399207946456188 
426	 0,397661447843639 
427	 0,395399904708419 
428	 0,393380931493421 
429	 0,393995783243353 
430	 0,39365502245329 
431	 0,39265811106583 
432	 0,397642226105256 
433	 0,40143180946646 
434	 0,398130425357561 
435	 0,3966881589109 
436	 0,39783221138206 
437	 0,398952903846155 
438	 0,40030318563031 
439	 0,401410352581961 
440	 0,399787794389977 
441	 0,397856353187624 
442	 0,39888230026913 
443	 0,398306526095715 
444	 0,396566987912877 
445	 0,398886531691801 
446	 0,401282591789251 
447	 0,401306463160155 
448	 0,400969893028931 
449	 0,400007250823003 
450	 0,397099596140822 
451	 0,39753037771901 
452	 0,401310110086316 
453	 0,400627728281756 
454	 0,398519327571526 
455	 0,398152380408233 
456	 0,399113090311844 
457	 0,400501835675761 
458	 0,399940609539619 
459	 0,399705645330432 
460	 0,400702682350852 
461	 0,402200876464162 
462	 0,402993526310817 
463	 0,401590763061344 
464	 0,402494238107515 
465	 0,405253190064784 
466	 0,403963099722017 
467	 0,402783216725436 
468	 0,404168552427305 
469	 0,403909106146395 
470	 0,402756832095225 
471	 0,403141826029359 
472	 0,405463114903812 
473	 0,408733976653059 
474	 0,407899570417629 
475	 0,405753715086049 
476	 0,405282813998402 
477	 0,404707154565808 
478	 0,403948319109808 
479	 0,403437311410558 
480	 0,40384575409505 
481	 0,405267942940379 
482	 0,40610555016628 
483	 0,406183702757538 
484	 0,405503143629728 
485	 0,406248039790621 
486	 0,407921521500422 
487	 0,405825741520099 
488	 0,405412623438233 
489	 0,410191456385325 
490	 0,410941249958638 
491	 0,408352166685527 
492	 0,407324496033356 
493	 0,40682711212895 
494	 0,40683225667914 
495	 0,407952026968526 
496	 0,409160885929765 
497	 0,409304754456415 
498	 0,408634245339963 
499	 0,407678971321245 
500	 0,407600596896626 
501	 0,408534560451767 
502	 0,410221312459296 
503	 0,410125291754405 
504	 0,408921144518038 
505	 0,408350935025453 
506	 0,407718683511661 
507	 0,407447973612882 
508	 0,410109059687591 
509	 0,412082575106976 
510	 0,41035309686227 
511	 0,4106954064067 
512	 0,412510590507291 
513	 0,411148711047785 
514	 0,410441654309489 
515	 0,41177949026771 
516	 0,412890801854766 
517	 0,413058751306555 
518	 0,411589739187926 
519	 0,411828916462197 
520	 0,413651438670131 
521	 0,413256940166749 
522	 0,412227775412296 
523	 0,41181734619989 
524	 0,412030183098594 
525	 0,412632862808061 
526	 0,413111755359576 
527	 0,41345508847779 
528	 0,413577304671251 
529	 0,413333695116946 
530	 0,412809442281411 
531	 0,412119103290628 
532	 0,412203211962204 
533	 0,412866212130341 
534	 0,412735140816766 
535	 0,412789481552236 
536	 0,413430596061386 
537	 0,412950764890453 
538	 0,411999392803861 
539	 0,412120698641552 
540	 0,412728935078853 
541	 0,413423057567975 
542	 0,413178191755208 
543	 0,412898676251779 
544	 0,413455138676294 
545	 0,413166432839031 
546	 0,412421827394582 
547	 0,413351812995312 
548	 0,41376716995401 
549	 0,41288332491745 
550	 0,413224918675212 
551	 0,414127433759168 
552	 0,41415994727328 
553	 0,413783262927168 
554	 0,413332972755578 
555	 0,413632869379983 
556	 0,414177520672176 
557	 0,414473388786097 
558	 0,41397627664539 
559	 0,4131985428395 
560	 0,413682674066929 
561	 0,414144517564134 
562	 0,414105727154312 
563	 0,414083222916272 
564	 0,413916805340442 
565	 0,413336806489711 
566	 0,413465051860655 
567	 0,414223180020128 
568	 0,414252532330444 
569	 0,414130624233099 
570	 0,414343627718254 
571	 0,415487634541122 
572	 0,416981624513973 
573	 0,417471125517638 
574	 0,417311948181003 
575	 0,416949498110667 
576	 0,418223357532291 
577	 0,419313973409878 
578	 0,418120155970768 
579	 0,417992102990812 
580	 0,419286039099943 
581	 0,420600226182515 
582	 0,421518622549295 
583	 0,421923958992085 
584	 0,423420433873977 
585	 0,424992367343773 
586	 0,424417311468685 
587	 0,424820682273802 
588	 0,426637968879172 
589	 0,427200832475118 
590	 0,427545393629871 
591	 0,428667705324385 
592	 0,429012516836856 
593	 0,428622026298747 
594	 0,428338954899599 
595	 0,428387771604455 
596	 0,428891749999818 
597	 0,42968794711804 
598	 0,430112963430342 
599	 0,429217661511899 
600	 0,428939371934918 
601	 0,429430387320776 
602	 0,428920172972519 
603	 0,428386875350116 
604	 0,428558878029411 
605	 0,428232005846822 
606	 0,427591524580225 
607	 0,427551514302848 
608	 0,427663912436957 
609	 0,427797273045745 
610	 0,428281170795684 
611	 0,42829501669882 
612	 0,426843207233356 
613	 0,42558036225031 
614	 0,425101404959315 
615	 0,4258130062302 
616	 0,426427835266066 
617	 0,426140948964016 
618	 0,425894589440358 
619	 0,42589014907947 
620	 0,426268201651137 
621	 0,426550727400541 
622	 0,426498667793954 
623	 0,425896074018599 
624	 0,425301658678083 
625	 0,425294314203793 
626	 0,425571049109495 
627	 0,425895768352605 
628	 0,425776134042867 
629	 0,425750396771293 
630	 0,426110059123905 
631	 0,426780238125005 
632	 0,427453330877184 
633	 0,427698455705291 
634	 0,427370009156435 
635	 0,426836972307441 
636	 0,427623603682723 
637	 0,428984223965644 
638	 0,430188273155212 
639	 0,430959934640812 
640	 0,431186908597604 
641	 0,430645409205763 
642	 0,430756093892478 
643	 0,431891284886018 
644	 0,432227807211028 
645	 0,432208545668087 
646	 0,432632241570244 
647	 0,432794279932527 
648	 0,432479766736625 
649	 0,431500488895882 
650	 0,430790235875162 
651	 0,430846203723609 
652	 0,429950560962143 
653	 0,4285958309342 
654	 0,428260242583094 
655	 0,428264548316857 
656	 0,42819981972654 
657	 0,42714581896515 
658	 0,426164079935392 
659	 0,426348282540092 
660	 0,425825833387894 
661	 0,424585007744649 
662	 0,423675149973957 
663	 0,423373350088767 
664	 0,423697933094843 
665	 0,423565240964497 
666	 0,422897784470941 
667	 0,421772578539014 
668	 0,421155334187934 
669	 0,421217043223956 
670	 0,421257916998052 
671	 0,421461179927449 
672	 0,421909153965107 
673	 0,421710055750819 
674	 0,421052892789882 
675	 0,420681887669872 
676	 0,420724048440126 
677	 0,421130163165869 
678	 0,421139709186469 
679	 0,420998063890197 
680	 0,421074225428271 
681	 0,421271833450495 
682	 0,421564895095014 
683	 0,421911391753703 
684	 0,422305973642571 
685	 0,42276414983743 
686	 0,423393229660432 
687	 0,424249420069481 
688	 0,425388058914086 
689	 0,426754362085775 
690	 0,428452780402223 
691	 0,430903903537151 
692	 0,433877249429042 
693	 0,437145901755442 
694	 0,440709709429768 
695	 0,444619621595497 
696	 0,449074496188043 
697	 0,453747486770386 
698	 0,458541319416856 
699	 0,463821690390119 
700	 0,469522329844021 
701	 0,475516325550628 
702	 0,481378051416197 
703	 0,486981060456402 
704	 0,492476093876348 
705	 0,497686647126248 
706	 0,502526961547056 
707	 0,507228183210998 
708	 0,511844039632514 
709	 0,516447858902048 
710	 0,520439916263092 
711	 0,523807057009846 
712	 0,527466342048343 
713	 0,530940859533848 
714	 0,533771499554864 
715	 0,536644667482975 
716	 0,539497458069976 
717	 0,541811477253855 
718	 0,543973472010089 
719	 0,546120799671918 
720	 0,548068269025471 
721	 0,549827403219798 
722	 0,551438706578345 
723	 0,552867824704835 
724	 0,554097632086884 
725	 0,555025525827409 
726	 0,55607730963468 
727	 0,55748390255789 
728	 0,558824041179645 
729	 0,559809946092188 
730	 0,560057138779211 
731	 0,560181483336547 
732	 0,560481063835332 
733	 0,56119758118322 
734	 0,561969211353208 
735	 0,562471858437941 
736	 0,562923221576474 
737	 0,563349500276906 
738	 0,563724687253028 
739	 0,564118911464044 
740	 0,564470376725671 
741	 0,564294679496782 
742	 0,563994596102325 
743	 0,564079956238449 
744	 0,564636691880563 
745	 0,565442412196095 
746	 0,565843270411266 
747	 0,565824547511325 
748	 0,565510477905999 
749	 0,565939329029967 
750	 0,566553637897512 
751	 0,566303200002523 
752	 0,566126828713237 
753	 0,566195841152647 
754	 0,566103068764015 
755	 0,566085585008095 
756	 0,566291204730548 
757	 0,566369198755788 
758	 0,566378034606778 
759	 0,566558202181257 
760	 0,566717324052259 
761	 0,566762097721558 
762	 0,566604801192483 
763	 0,566343116243498 
764	 0,566093490585182 
765	 0,566103753100692 
766	 0,566307158091939 
767	 0,566403548289536 
768	 0,566477118381228 
769	 0,566551500157896 
770	 0,566635045467241 
771	 0,566717960061818 
772	 0,5667819990286 
773	 0,566494773942973 
774	 0,566016497980001 
775	 0,565958106833545 
776	 0,566421981547905 
777	 0,567244475512676 
778	 0,566932686858198 
779	 0,566078268259176 
780	 0,565789086318371 
781	 0,565827408964535 
782	 0,566106401380978 
783	 0,566493248792438 
784	 0,566649093306553 
785	 0,566392913816035 
786	 0,566255805092242 
787	 0,566265700982517 
788	 0,566320913043941 
789	 0,566406835448555 
790	 0,566447905282535 
791	 0,566200441563059 
792	 0,565943944800347 
793	 0,565908674449401 
794	 0,565972910902753 
795	 0,566064612742538 
796	 0,566096684638991 
797	 0,565964178592145 
798	 0,565720172555142 
799	 0,565819324839347 
800	 0,565884041824689 
801	 0,565578781028876 
802	 0,565590344117709 
803	 0,565913114144557 
804	 0,566269190469412 
805	 0,566254412422092 
806	 0,565840280555919 
807	 0,565861805301604 
808	 0,566080368135227 
809	 0,566183492523701 
810	 0,566530173478195 
811	 0,566894515302461 
812	 0,566469130700127 
813	 0,566093963944583 
814	 0,56609555232616 
815	 0,566044330041864 
816	 0,565951197059989 
817	 0,565873021787576 
818	 0,565931535796709 
819	 0,566118225281443 
820	 0,566341911758674 
821	 0,566473713779038 
822	 0,566445991636332 
823	 0,566342865424666 
824	 0,566176429913414 
825	 0,565956325232669 
826	 0,566359790730503 
827	 0,567075326791182 
828	 0,566588376768569 
829	 0,566169032987908 
830	 0,56636906497195 
831	 0,566048794267651 
832	 0,565761102471434 
833	 0,566394877830407 
834	 0,566314212408501 
835	 0,565606414309711 
836	 0,565998143353219 
837	 0,566213660631793 
838	 0,565711393444588 
839	 0,565824668570265 
840	 0,566261582303538 
841	 0,566407413598383 
842	 0,566429168916073 
843	 0,566309120131944 
844	 0,565855597501777 
845	 0,565600677853923 
846	 0,565843486781426 
847	 0,566433736864158 
848	 0,566775774290401 
849	 0,566095809848675 
850	 0,566101487544028 
851	 0,56675357385179 
852	 0,566444674113858 
853	 0,565812640026303 
854	 0,56530742942209 
855	 0,565429319854042 
856	 0,565924585345876 
857	 0,56635413752264 
858	 0,566308415057701 
859	 0,565912086145592 
860	 0,566006112205866 
861	 0,565839807840579 
862	 0,565212526159488 
863	 0,565439178749303 
864	 0,565997609494476 
865	 0,56604065411055 
866	 0,566325168155986 
867	 0,566785367073336 
868	 0,566812852117814 
869	 0,566276527577013 
870	 0,56539001930878 
871	 0,565838400706204 
872	 0,566605384742733 
873	 0,566303219754661 
874	 0,565944847736982 
875	 0,56584857733899 
876	 0,566337831581429 
877	 0,56649397774299 
878	 0,566064526429017 
879	 0,566107147476856 
880	 0,566356606831634 
881	 0,566425323465288 
882	 0,566194546582974 
883	 0,565769401709846 
884	 0,565339375086745 
885	 0,565891587266137 
886	 0,567326919584275 
887	 0,56715632679766 
888	 0,566449369157867 
889	 0,566351790637014 
890	 0,566486632916499 
891	 0,566567387842629 
892	 0,566049919843631 
893	 0,565762826161194 
894	 0,565875449595936 
895	 0,565830441379931 
896	 0,565623990904036 
897	 0,565346931091408 
898	 0,56577340086254 
899	 0,566445360015518 
900	 0,566358418396505 
901	 0,566041572109547 
902	 0,565854208940297 
903	 0,566617369483459 
904	 0,56697856996546 
905	 0,566178797214829 
906	 0,565325238623409 
907	 0,564950683465965 
908	 0,565562507768437 
909	 0,566068506991242 
910	 0,566122043295876 
911	 0,5656078677804 
912	 0,565236340349078 
913	 0,5653993680119 
914	 0,566087175873373 
915	 0,566666714233379 
916	 0,56645025953023 
917	 0,565570506869613 
918	 0,564761312406767 
919	 0,565804806571052 
920	 0,56648656101933 
921	 0,566157264028338 
922	 0,565918762924024 
923	 0,56543531694079 
924	 0,564553197132688 
925	 0,564955335286282 
926	 0,565729875750584 
927	 0,564771359011387 
928	 0,563925918200835 
929	 0,56388539931933 
930	 0,565170931238115 
931	 0,566103848578566 
932	 0,565721785164827 
933	 0,565103136240143 
934	 0,564301577847545 
935	 0,563271471504005 
936	 0,563286088289051 
937	 0,564105728355827 
938	 0,564237575231901 
939	 0,564231918984419 
940	 0,564242408774082 
941	 0,564219066126921 
942	 0,56385273510551 
943	 0,563014816824003 
944	 0,563365340408703 
945	 0,563972800026942 
946	 0,562588402633935 
947	 0,561961337757522 
948	 0,562375649412103 
949	 0,561864270973462 
950	 0,560985733980283 
951	 0,560065693784226 
952	 0,558968650747054 
953	 0,558108739500016 
954	 0,557965314827127 
955	 0,558378577689526 
956	 0,558818815247465 
957	 0,557993769698725 
958	 0,557880115187918 
959	 0,558748595033512 
960	 0,55860591570862 
961	 0,557566915438625 
962	 0,556112966464778 
963	 0,556991843578891 
964	 0,558664911223043 
965	 0,558243548215033 
966	 0,556562221916348 
967	 0,554963550454921 
968	 0,557191910186884 
969	 0,55780888768963 
970	 0,555250414600056 
971	 0,554807531289362 
972	 0,555169800100563 
973	 0,555037069889109 
974	 0,557344043240092 
975	 0,559736725606438 
976	 0,55736471645218 
977	 0,555699588511329 
978	 0,555945306024144 
979	 0,556469045326563 
980	 0,557279519999867 
981	 0,558025628797724 
982	 0,557230392626741 
983	 0,556116037589812 
984	 0,556019920506459 
985	 0,556111362615935 
986	 0,556417694742013 
987	 0,557275916650917 
988	 0,557669064853468 
989	 0,557292735645117 
990	 0,556087145206407 
991	 0,556194136187548 
992	 0,558035529915747 
993	 0,55651952665377 
994	 0,555600085881749 
995	 0,55927741523113 
996	 0,559336148629072 
997	 0,557543746006479 
998	 0,560337043985687 
999	 0,56014795725791 
1000	 0,556923088884683 
1001	 0,55814530517478 
1002	 0,56065866148355 
1003	 0,562447008539481 
1004	 0,561967341536904 
1005	 0,560159953783816 
1006	 0,558365147217772 
1007	 0,5590511919614 
1008	 0,561078951628979 
1009	 0,561655443732314 
1010	 0,561170055675018 
1011	 0,56016424847503 
1012	 0,560151961098225 
1013	 0,560557653825738 
1014	 0,561262267043136 
1015	 0,563040775029171 
1016	 0,564131485772757 
1017	 0,563364860285931 
1018	 0,564524851911714 
1019	 0,565653520974322 
1020	 0,563211527549557 
1021	 0,563852715374662 
1022	 0,565957860802428 
1023	 0,559803360118095 
1024	 0,558431219468195 
1025	 0,563715649043886 
1026	 0,56238698588281 
1027	 0,561353929075455 
1028	 0,564593226558093 
1029	 0,56568253603968 
1030	 0,564935122382132 
1031	 0,563768532446121 
1032	 0,565361768902878 
1033	 0,568576499699345 
1034	 0,569657390863188 
1035	 0,571141238160588 
1036	 0,572276121376706 
1037	 0,568356772187243 
1038	 0,562201951849381 
1039	 0,557736085616531 
1040	 0,566133956363372 
1041	 0,57325612570148 
1042	 0,567986079852484 
1043	 0,563418833228601 
1044	 0,564437695776255 
1045	 0,574287604061836 
1046	 0,575064996764926 
1047	 0,567992380724484 
1048	 0,566264639846318 
1049	 0,569518444007894 
1050	 0,575227065578883 
1051	 0,572418733850521 
1052	 0,569409566252388 
1053	 0,569686582778327 
1054	 0,566466487572757 
1055	 0,56598621445585 
1056	 0,572940717513491 
1057	 0,576121321880793 
1058	 0,576370138988085 
1059	 0,577284350242403 
1060	 0,579669530961044 
1061	 0,580969322386581 
1062	 0,574609591300112 
1063	 0,573178178716921 
1064	 0,576730935213615 
1065	 0,569784605207775 
1066	 0,569626695911354 
1067	 0,579745443904047 
1068	 0,573716982861763 
1069	 0,570769248344484 
1070	 0,583285911554697 
1071	 0,589248078397424 
1072	 0,582518854543357 
1073	 0,562251446680004 
1074	 0,556374470285754 
1075	 0,560165889206711 
