Wavelength	PENFOUL00191.asd
325	 0,257161497662168 
326	 0,110283016369126 
327	 1,49464441546802E-02 
328	 9,25403951134817E-02 
329	 0,260110057219444 
330	 0,327225939863739 
331	 0,188765442778815 
332	 0,163039071755533 
333	 0,213511393257868 
334	 0,268124257969872 
335	 0,193118844768952 
336	 7,01153007167342E-03 
337	-5,41876938377325E-02 
338	-1,95775403339392E-02 
339	 5,63483283334917E-02 
340	 0,12028482148354 
341	 0,151535288851787 
342	 0,122785804889755 
343	 8,09144931369802E-02 
344	 5,12660676952985E-02 
345	 8,35206791209864E-02 
346	 9,04560007334303E-02 
347	 2,00398898280938E-03 
348	-7,50970922004648E-03 
349	 4,11157717239674E-02 
350	 4,40005649339009E-02 
351	 0,027800996681271 
352	 8,5848542667987E-03 
353	 3,28435066566189E-02 
354	 0,067830548729937 
355	 8,29810810579548E-02 
356	 8,67084318184364E-02 
357	 8,21845291924918E-02 
358	 7,66475122491498E-02 
359	 6,90577237534111E-02 
360	 6,02596638258397E-02 
361	 6,13914316527333E-02 
362	 7,37638021226805E-02 
363	 9,59789298240141E-02 
364	 8,43512205457728E-02 
365	 4,43067105250974E-02 
366	 3,16333705764089E-02 
367	 3,89720542959225E-02 
368	 5,49577653604477E-02 
369	 3,10766188828473E-02 
370	 1,24309684882758E-02 
371	 9,54987010271758E-02 
372	 0,102571594708533 
373	 2,32884194747014E-02 
374	 5,93113765564225E-02 
375	 9,47715134079148E-02 
376	 5,35617641779478E-02 
377	 5,49730014800102E-02 
378	 8,15168864784657E-02 
379	 5,62036139641757E-02 
380	 3,40164394768739E-02 
381	 3,46228308959675E-02 
382	 0,051049304903809 
383	 6,25416699201739E-02 
384	 5,23851237231749E-02 
385	 4,36592739474512E-02 
386	 3,80591234131362E-02 
387	 2,31667281049046E-02 
388	 0,028448295508626 
389	 5,59839921153281E-02 
390	 5,37705355206171E-02 
391	 4,01653161916143E-02 
392	 0,041604821222279 
393	 4,17949456371437E-02 
394	 0,038779953407735 
395	 3,62565435842245E-02 
396	 3,42348639229555E-02 
397	 3,25532454599262E-02 
398	 2,91346432918667E-02 
399	 2,60877882913065E-02 
400	 2,68015190000935E-02 
401	 2,56166576656407E-02 
402	 2,29018803949114E-02 
403	 2,51307589197939E-02 
404	 3,04163795080532E-02 
405	 3,67426403319655E-02 
406	 3,79701697863707E-02 
407	 3,81814064072598E-02 
408	 4,83839198320349E-02 
409	 5,12730495049252E-02 
410	 4,41965415462182E-02 
411	 0,038890262718911 
412	 0,035364553448637 
413	 3,30764579008392E-02 
414	 2,83565542189249E-02 
415	 2,43865607612396E-02 
416	 3,22022272694918E-02 
417	 3,62309726145032E-02 
418	 3,22416922557663E-02 
419	 3,66955777884243E-02 
420	 4,09270108203607E-02 
421	 3,27617886547164E-02 
422	 3,24983633129641E-02 
423	 3,99158476589049E-02 
424	 3,77308796686881E-02 
425	 3,34481536751165E-02 
426	 0,031774536837647 
427	 3,23034628556534E-02 
428	 3,29740839795783E-02 
429	 2,98227429990356E-02 
430	 2,97383377288045E-02 
431	 3,32876191223717E-02 
432	 3,34214329200644E-02 
433	 3,30481295409014E-02 
434	 3,46674988327441E-02 
435	 3,23372568194289E-02 
436	 2,84378224909008E-02 
437	 3,13804707390485E-02 
438	 3,56946410080237E-02 
439	 3,84268405281926E-02 
440	 3,63510707783495E-02 
441	 3,39245151895243E-02 
442	 0,037064525762947 
443	 3,53493250640841E-02 
444	 2,92651862706823E-02 
445	 2,87040787161236E-02 
446	 3,00111853195701E-02 
447	 3,09104190967829E-02 
448	 3,24409262148327E-02 
449	 3,40414908066491E-02 
450	 3,44916950577036E-02 
451	 3,55243225453613E-02 
452	 3,68263269973108E-02 
453	 3,40879314497532E-02 
454	 3,28254975484166E-02 
455	 3,76585510434373E-02 
456	 3,69139280599669E-02 
457	 3,18393369491407E-02 
458	 0,03168056171182 
459	 3,26122937008077E-02 
460	 3,30249256983981E-02 
461	 3,25407652881373E-02 
462	 3,24379410321704E-02 
463	 3,44959607085983E-02 
464	 3,36969901696885E-02 
465	 3,09488012973415E-02 
466	 3,41035977484725E-02 
467	 0,037128582086096 
468	 3,62764518992634E-02 
469	 3,59087039668635E-02 
470	 3,60731147435515E-02 
471	 3,55903692878002E-02 
472	 3,49349714188773E-02 
473	 3,46641644639601E-02 
474	 3,68535529266996E-02 
475	 3,81517399775128E-02 
476	 0,035428103365673 
477	 3,48457235674221E-02 
478	 3,61550985141032E-02 
479	 3,50900128113761E-02 
480	 0,033323462574388 
481	 3,20649633527539E-02 
482	 3,40830145901229E-02 
483	 3,69342872774835E-02 
484	 3,67277849256145E-02 
485	 3,65282682826177E-02 
486	 3,68613065629265E-02 
487	 3,64008321956912E-02 
488	 3,64840196295655E-02 
489	 3,79057415815205E-02 
490	 3,75303646285816E-02 
491	 0,036400699357541 
492	 3,83206457313373E-02 
493	 3,87218408772868E-02 
494	 3,66830837837456E-02 
495	 3,64118577255839E-02 
496	 3,68878056065463E-02 
497	 3,66150474883017E-02 
498	 3,66954425236053E-02 
499	 3,71689423723687E-02 
500	 3,75012224841001E-02 
501	 3,77116420780771E-02 
502	 3,78515154765419E-02 
503	 3,84307029265734E-02 
504	 3,88282904160921E-02 
505	 3,78140213417098E-02 
506	 3,70966156985807E-02 
507	 3,73166768753298E-02 
508	 3,89060936970794E-02 
509	 3,96220405847995E-02 
510	 3,77026168830998E-02 
511	 3,78486620559983E-02 
512	 3,95227317910498E-02 
513	 3,87600790972036E-02 
514	 3,87499941627989E-02 
515	 0,040433341787503 
516	 4,07098133351153E-02 
517	 4,00528676852326E-02 
518	 3,95283509361465E-02 
519	 3,95833586091868E-02 
520	 4,02432861540753E-02 
521	 0,041099992557661 
522	 4,14539364780834E-02 
523	 4,08359233562231E-02 
524	 3,96533451820825E-02 
525	 3,89929731294123E-02 
526	 4,12873725090321E-02 
527	 0,042499674327379 
528	 4,16524119404436E-02 
529	 4,21081107083467E-02 
530	 4,25950125201426E-02 
531	 4,14268900617448E-02 
532	 4,07729650546863E-02 
533	 4,10842395434014E-02 
534	 4,22456207416235E-02 
535	 4,27058662040891E-02 
536	 4,17460060128761E-02 
537	 4,17253357620372E-02 
538	 4,25821406482237E-02 
539	 4,36924439960681E-02 
540	 4,39881152051763E-02 
541	 4,32760936140374E-02 
542	 4,24782029332765E-02 
543	 4,23151261105591E-02 
544	 4,33514087800949E-02 
545	 4,38457797054735E-02 
546	 4,37258852188223E-02 
547	 4,40161989428735E-02 
548	 4,36791260962322E-02 
549	 4,26083637790286E-02 
550	 4,36594560527345E-02 
551	 4,53593723059054E-02 
552	 4,49779479889048E-02 
553	 4,45242334191524E-02 
554	 4,44953448075637E-02 
555	 4,44787565212965E-02 
556	 4,46123443942694E-02 
557	 0,044981553296485 
558	 4,51575173688554E-02 
559	 4,51222002242234E-02 
560	 4,50391908428146E-02 
561	 4,49554134843055E-02 
562	 4,49267884034692E-02 
563	 4,50997625316194E-02 
564	 4,51821116775974E-02 
565	 0,044781202548096 
566	 4,44836345519555E-02 
567	 4,45285546189545E-02 
568	 4,51467944877172E-02 
569	 4,57581059867892E-02 
570	 4,59557623447299E-02 
571	 4,59594753079125E-02 
572	 0,046181109371912 
573	 4,75384453847476E-02 
574	 4,82058719837991E-02 
575	 4,78252725664644E-02 
576	 4,83010924074893E-02 
577	 4,91148135293054E-02 
578	 4,95422978315655E-02 
579	 5,01941158581014E-02 
580	 5,10071935082908E-02 
581	 5,13959698593245E-02 
582	 0,051728133250941 
583	 5,22329914217498E-02 
584	 5,30362108508286E-02 
585	 5,36086244215649E-02 
586	 5,29464561400587E-02 
587	 5,28737911276057E-02 
588	 5,37715928621993E-02 
589	 5,44993608608512E-02 
590	 5,52784638151299E-02 
591	 5,62627691007523E-02 
592	 5,56538071535867E-02 
593	 5,42230882624653E-02 
594	 5,50559834083527E-02 
595	 5,56796436862561E-02 
596	 5,51699230361854E-02 
597	 5,55372214618529E-02 
598	 5,60958278126331E-02 
599	 5,55135139357516E-02 
600	 5,52535908158739E-02 
601	 5,54800894705959E-02 
602	 5,50847128446686E-02 
603	 5,49453821490972E-02 
604	 5,56490832405505E-02 
605	 5,54686821002626E-02 
606	 5,46817176229093E-02 
607	 5,47244275258421E-02 
608	 5,45322803685714E-02 
609	 5,40466667535143E-02 
610	 5,53789536782987E-02 
611	 5,62813209234429E-02 
612	 5,38568618604747E-02 
613	 5,26499199895535E-02 
614	 5,32156347884263E-02 
615	 0,053354015064295 
616	 5,33100401724404E-02 
617	 5,32289076609062E-02 
618	 5,32396671958752E-02 
619	 5,32722608917217E-02 
620	 0,053107580743511 
621	 0,053287159384718 
622	 5,36846724521713E-02 
623	 0,052800606118415 
624	 5,17594176172696E-02 
625	 5,18042431536074E-02 
626	 5,27209953421568E-02 
627	 5,38830202623523E-02 
628	 5,36534445940886E-02 
629	 5,33595183578525E-02 
630	 5,37044938169866E-02 
631	 5,44350598254142E-02 
632	 5,51814319715453E-02 
633	 5,54289779154207E-02 
634	 5,52638456278548E-02 
635	 5,49294904719342E-02 
636	 5,51618282517249E-02 
637	 5,59670415265703E-02 
638	 5,72235956548424E-02 
639	 5,76374334260687E-02 
640	 5,73167723101789E-02 
641	 5,71045419015738E-02 
642	 5,73437022275227E-02 
643	 5,80802615628132E-02 
644	 5,83845006925887E-02 
645	 5,84044949501772E-02 
646	 5,84557239163781E-02 
647	 5,84520123962133E-02 
648	 5,83589089123258E-02 
649	 5,80498994286381E-02 
650	 5,79103661783099E-02 
651	 5,80905877217807E-02 
652	 0,057379485557728 
653	 5,63628057629035E-02 
654	 5,66207763534753E-02 
655	 5,66351354553231E-02 
656	 5,59680577107596E-02 
657	 5,50686586289986E-02 
658	 0,054516655410672 
659	 5,48088856344792E-02 
660	 5,38875276788697E-02 
661	 5,21019349998085E-02 
662	 0,051761074563164 
663	 5,16570050671781E-02 
664	 0,051170951011579 
665	 5,04535155517372E-02 
666	 4,95870350009103E-02 
667	 4,86512720892241E-02 
668	 4,82246281085144E-02 
669	 0,048382665125034 
670	 4,87108286042778E-02 
671	 4,88365457572903E-02 
672	 4,84973876410566E-02 
673	 4,82396652607773E-02 
674	 4,80810181548375E-02 
675	 4,77171924063679E-02 
676	 4,78247271695207E-02 
677	 4,84714704841105E-02 
678	 4,84972995368498E-02 
679	 0,048420340782052 
680	 4,89565428220525E-02 
681	 4,91152209598751E-02 
682	 4,90150356709257E-02 
683	 4,98437694935371E-02 
684	 0,050422042951783 
685	 5,02116129148258E-02 
686	 5,07880143639338E-02 
687	 5,20889134900127E-02 
688	 5,36242534302747E-02 
689	 5,52770991496828E-02 
690	 5,69091337265542E-02 
691	 5,82221809682749E-02 
692	 5,98823129140957E-02 
693	 6,24636651630401E-02 
694	 6,52037711977724E-02 
695	 6,80395524174083E-02 
696	 7,11933711338091E-02 
697	 7,47374433119121E-02 
698	 7,86351526766341E-02 
699	 8,24646264390682E-02 
700	 8,64904080356528E-02 
701	 9,11016390011735E-02 
702	 9,54498056322535E-02 
703	 9,94330521225701E-02 
704	 0,103533484837656 
705	 0,107644909834632 
706	 0,111688507693605 
707	 0,115582001306312 
708	 0,11925796054624 
709	 0,122624158962478 
710	 0,125897893581475 
711	 0,129027698306011 
712	 0,131447078946229 
713	 0,133750976717786 
714	 0,136462024912874 
715	 0,138703215361283 
716	 0,140568184711561 
717	 0,142768584917138 
718	 0,144737897172205 
719	 0,146285990948102 
720	 0,147830883196001 
721	 0,149190221181678 
722	 0,150090193226526 
723	 0,151285896952263 
724	 0,152817901277343 
725	 0,154210486824548 
726	 0,155182608608381 
727	 0,155642208056422 
728	 0,15642130377635 
729	 0,157345185900269 
730	 0,157886048124211 
731	 0,158286053056205 
732	 0,158714000958233 
733	 0,15958403156082 
734	 0,160393736726249 
735	 0,160703867953347 
736	 0,160850818526948 
737	 0,161089520752755 
738	 0,161895716425397 
739	 0,162647394632224 
740	 0,163094134490746 
741	 0,163421551420543 
742	 0,163503198320817 
743	 0,16320231611553 
744	 0,163518750127807 
745	 0,164359353418579 
746	 0,164748183831438 
747	 0,164707350527335 
748	 0,164426709411728 
749	 0,165331177759214 
750	 0,166459375258309 
751	 0,166077578251125 
752	 0,165992733300015 
753	 0,166461249990114 
754	 0,166431638835375 
755	 0,166439726402626 
756	 0,166851917072455 
757	 0,167169310885773 
758	 0,167406208935876 
759	 0,167779441337273 
760	 0,167955087521522 
761	 0,167889437430819 
762	 0,167903788538435 
763	 0,168028478334838 
764	 0,168267475059787 
765	 0,168469921941164 
766	 0,168662357414042 
767	 0,169021961989979 
768	 0,169314714501139 
769	 0,169440075678711 
770	 0,169404933099662 
771	 0,169467888485903 
772	 0,169915040492142 
773	 0,170192881966639 
774	 0,170231240739083 
775	 0,170189019082311 
776	 0,170438290143196 
777	 0,171039313413126 
778	 0,170881448557673 
779	 0,170507020747494 
780	 0,170885154242925 
781	 0,171176171424697 
782	 0,171227202668318 
783	 0,171327747125381 
784	 0,17137219194706 
785	 0,171337680320504 
786	 0,171603414835913 
787	 0,172046093547394 
788	 0,172376787395147 
789	 0,172391911117555 
790	 0,172145627209615 
791	 0,172169663286311 
792	 0,172264747664292 
793	 0,172276631011388 
794	 0,172467837714616 
795	 0,17271289094781 
796	 0,172636551460838 
797	 0,172768349649027 
798	 0,173190806982391 
799	 0,173462089112186 
800	 0,17335124543559 
801	 0,172754694509183 
802	 0,173013180251126 
803	 0,173882453276048 
804	 0,174097224186129 
805	 0,174112613388239 
806	 0,174109021107568 
807	 0,174318894103923 
808	 0,174480966481405 
809	 0,174321584638675 
810	 0,174459532425594 
811	 0,174840260175991 
812	 0,174964781112288 
813	 0,174983665044622 
814	 0,174931334407951 
815	 0,174608670779598 
816	 0,174585916343652 
817	 0,175499345735408 
818	 0,175682368715688 
819	 0,175214039623485 
820	 0,175549568191148 
821	 0,175915280484848 
822	 0,175948238446085 
823	 0,175742051396354 
824	 0,175573297714095 
825	 0,175781011743262 
826	 0,176483814934775 
827	 0,177285346431444 
828	 0,17684377929347 
829	 0,176656357098249 
830	 0,177281925541153 
831	 0,176698203207321 
832	 0,176093002033217 
833	 0,177328496851895 
834	 0,177551500307326 
835	 0,17664924559531 
836	 0,176655916233769 
837	 0,176997905667105 
838	 0,177336069750156 
839	 0,177445761273352 
840	 0,177448939613619 
841	 0,177567495498871 
842	 0,177612501580395 
843	 0,177632311711971 
844	 0,177989189453072 
845	 0,177985784201863 
846	 0,177445459357389 
847	 0,178105680863201 
848	 0,178811847284783 
849	 0,177711363532944 
850	 0,177037762637715 
851	 0,177274623015124 
852	 0,178119649000187 
853	 0,178295204456598 
854	 0,177344661720293 
855	 0,177496371659166 
856	 0,178113067778032 
857	 0,177986490494752 
858	 0,177944602672191 
859	 0,178041885449089 
860	 0,177767245036059 
861	 0,177873236435258 
862	 0,178564874836078 
863	 0,178402026225003 
864	 0,178091716080415 
865	 0,178720790625287 
866	 0,178796863990105 
867	 0,178342599750253 
868	 0,17853091502983 
869	 0,178687823026235 
870	 0,178593729757623 
871	 0,178935399401888 
872	 0,17930369095645 
873	 0,179154105015897 
874	 0,178982359851232 
875	 0,179015165508259 
876	 0,179563307380963 
877	 0,180124075196973 
878	 0,180390283491954 
879	 0,180132875901594 
880	 0,179625729579407 
881	 0,179221654386765 
882	 0,179399038709555 
883	 0,179956882978853 
884	 0,180100009088396 
885	 0,180191456853924 
886	 0,180357684604188 
887	 0,180673292213797 
888	 0,180873013021965 
889	 0,180720691882307 
890	 0,180436841474369 
891	 0,1802845518291 
892	 0,180741869700892 
893	 0,181012231355079 
894	 0,180956906216623 
895	 0,181284361947123 
896	 0,181546804285447 
897	 0,181368748777339 
898	 0,180760464223568 
899	 0,180331430862047 
900	 0,18114665144628 
901	 0,181505520215832 
902	 0,181183046860269 
903	 0,181373841359476 
904	 0,181565405515491 
905	 0,181502654804867 
906	 0,181883262425067 
907	 0,182060443447599 
908	 0,181039695686964 
909	 0,181622769860457 
910	 0,183447447906298 
911	 0,183159525126505 
912	 0,182507418507129 
913	 0,182347705548191 
914	 0,182551508685612 
915	 0,183033874936563 
916	 0,183607300083472 
917	 0,182567366724015 
918	 0,180865561404804 
919	 0,181743461285985 
920	 0,182808113322842 
921	 0,183231112312031 
922	 0,183405863727548 
923	 0,183175279602236 
924	 0,182496506102477 
925	 0,182210068046237 
926	 0,182304669026498 
927	 0,182509705075877 
928	 0,182050037990891 
929	 0,181124105962925 
930	 0,181334212196969 
931	 0,181729920491632 
932	 0,181841432147125 
933	 0,182678719227586 
934	 0,183396685891159 
935	 0,182846188706082 
936	 0,182108387339439 
937	 0,181801930883416 
938	 0,183041656535957 
939	 0,183504955759474 
940	 0,182443018363423 
941	 0,181065132862509 
942	 0,180620905894076 
943	 0,181949633449995 
944	 0,182433429049785 
945	 0,182314006150435 
946	 0,182942816629319 
947	 0,183026670143155 
948	 0,182333016730031 
949	 0,181339300821868 
950	 0,180618939179369 
951	 0,180455453962452 
952	 0,180232609850216 
953	 0,179734132905196 
954	 0,178852853238418 
955	 0,179250058835016 
956	 0,180292782025699 
957	 0,179364087647853 
958	 0,178858734630378 
959	 0,179561371886969 
960	 0,181331227667777 
961	 0,18136902100295 
962	 0,178304691780579 
963	 0,179372464902749 
964	 0,182175122877021 
965	 0,181562057965076 
966	 0,180020119732802 
967	 0,178578514874454 
968	 0,178507550489136 
969	 0,178711812866491 
970	 0,178732999959984 
971	 0,178881379522912 
972	 0,179053609959078 
973	 0,179144745839184 
974	 0,179200993784667 
975	 0,179176628597927 
976	 0,178995567814623 
977	 0,178374941610863 
978	 0,177946934925543 
979	 0,180163039356891 
980	 0,181819986691523 
981	 0,181266125968766 
982	 0,179287055344177 
983	 0,178068357947221 
984	 0,179471394409803 
985	 0,179200509771551 
986	 0,178084860110395 
987	 0,179268750291478 
988	 0,180353173925865 
989	 0,180767506347021 
990	 0,181072510988093 
991	 0,181556107461846 
992	 0,182082310635583 
993	 0,180680734133515 
994	 0,17977668861822 
995	 0,181849872840269 
996	 0,183764089859795 
997	 0,184800725307872 
998	 0,184890225810397 
999	 0,183602997197593 
1000	 0,181836330770856 
1001	 0,182806734889025 
1002	 0,184324089228669 
1003	 0,185337658183763 
1004	 0,187142436351535 
1005	 0,187379274500291 
1006	 0,184231591536385 
1007	 0,184329936018396 
1008	 0,185386397080918 
1009	 0,181216523163774 
1010	 0,182411170945089 
1011	 0,188208059223714 
1012	 0,186509127895324 
1013	 0,184571605781464 
1014	 0,185442308037462 
1015	 0,187594880387746 
1016	 0,188975624233684 
1017	 0,188210171967109 
1018	 0,188928798573119 
1019	 0,190027173158305 
1020	 0,18912658993599 
1021	 0,185809364082629 
1022	 0,182038616497654 
1023	 0,183494154369085 
1024	 0,184561720906662 
1025	 0,183938518508822 
1026	 0,184717645421842 
1027	 0,187530400500305 
1028	 0,191767405249794 
1029	 0,190582599669147 
1030	 0,188734808713182 
1031	 0,192218371110138 
1032	 0,192821334018528 
1033	 0,191807898046032 
1034	 0,19475127103919 
1035	 0,199213673218245 
1036	 0,201626832935905 
1037	 0,191040938151841 
1038	 0,18590232180601 
1039	 0,19269311546238 
1040	 0,196125370303112 
1041	 0,196090504332045 
1042	 0,193943885609025 
1043	 0,197208840835496 
1044	 0,201874522017838 
1045	 0,201026463577424 
1046	 0,193730256535439 
1047	 0,186066814139439 
1048	 0,19339982921782 
1049	 0,194650798406791 
1050	 0,187576833539938 
1051	 0,189091357964855 
1052	 0,196088199850016 
1053	 0,204037308248901 
1054	 0,199042185986943 
1055	 0,191438966294977 
1056	 0,191703701386771 
1057	 0,199526916695839 
1058	 0,208105886443204 
1059	 0,208758646683221 
1060	 0,203319599629563 
1061	 0,197377119289709 
1062	 0,202663544002235 
1063	 0,209024856754877 
1064	 0,210025482420725 
1065	 0,192645798211589 
1066	 0,188405639736581 
1067	 0,205419333570642 
1068	 0,202596474567666 
1069	 0,197701317938973 
1070	 0,202696652956121 
1071	 0,193916556142532 
1072	 0,182561915621072 
1073	 0,186084774634766 
1074	 0,197985605570467 
1075	 0,20767454383965 
