Wavelength	PENFOUL00711.asd
325	 0,13573016467518 
326	 0,156989987815861 
327	 0,190115669843965 
328	 0,209923198448327 
329	 0,280745785865251 
330	 0,301091417398562 
331	 0,220913611066484 
332	 0,203661574914099 
333	 0,222436997397829 
334	 0,236194109574859 
335	 0,162749046713635 
336	 1,68216794112712E-02 
337	-0,051058331552639 
338	-1,82327541298635E-02 
339	 0,101877994814644 
340	 0,134470336851557 
341	 0,112605240467259 
342	 0,138077167518018 
343	 0,14200728598404 
344	 0,106578691921546 
345	 6,97697124167221E-02 
346	 5,72278003402831E-02 
347	 0,082371439727314 
348	 0,117421325567924 
349	 0,129682587120731 
350	 3,70955154750243E-02 
351	-0,032473604238906 
352	-2,98631629512147E-02 
353	 2,37931159851399E-02 
354	 6,89964224630483E-02 
355	 6,36621116311705E-02 
356	 5,67197179311967E-02 
357	 5,63412610009485E-02 
358	 6,01388173031791E-02 
359	 4,06192789163524E-02 
360	-5,27115054389206E-03 
361	-1,84354137983509E-03 
362	 3,20882622025576E-02 
363	 5,22197662137411E-02 
364	 5,58907373434792E-02 
365	 4,95651468184391E-02 
366	 5,90610593037869E-02 
367	 6,56969544751315E-02 
368	 0,057751914542022 
369	 3,22179930795848E-02 
370	 1,38129536101344E-02 
371	 4,94892191063222E-02 
372	 4,97586858555023E-02 
373	 1,15797904781967E-02 
374	 4,68530921310042E-02 
375	 7,61876998150193E-02 
376	 4,90395062320078E-02 
377	 3,65534340021993E-02 
378	 3,89830642401074E-02 
379	 2,57721517500932E-02 
380	 0,019863250241831 
381	 2,76059295881707E-02 
382	 3,81625175072139E-02 
383	 4,55748797203385E-02 
384	 0,045248317143973 
385	 2,99643973288705E-02 
386	 1,19722101890757E-02 
387	 2,31524966486656E-02 
388	 3,93774440605892E-02 
389	 4,98826052120529E-02 
390	 5,92589856743157E-02 
391	 5,83032042824836E-02 
392	 0,036498873170085 
393	 0,020259220658114 
394	 0,015825848590383 
395	 2,24196864261006E-02 
396	 2,83868922946303E-02 
397	 2,83641464107638E-02 
398	 0,034464109430008 
399	 4,32694601405754E-02 
400	 4,90619131054234E-02 
401	 3,75456386970709E-02 
402	 1,53258387775666E-02 
403	 2,09895498923498E-02 
404	 3,24136362647293E-02 
405	 3,40013830064051E-02 
406	 2,83812115284412E-02 
407	 2,31120951304161E-02 
408	 3,43268762606358E-02 
409	 3,87342210478029E-02 
410	 3,22359440242941E-02 
411	 2,85943250387795E-02 
412	 0,030153373953751 
413	 3,75612346088568E-02 
414	 3,31496239632539E-02 
415	 2,20512945930443E-02 
416	 2,65231778684693E-02 
417	 3,03109968252089E-02 
418	 2,82060206840636E-02 
419	 3,11308711672929E-02 
420	 3,39262962592817E-02 
421	 2,93552636215032E-02 
422	 2,68812654661146E-02 
423	 2,76089854885863E-02 
424	 2,69575964981624E-02 
425	 2,70196239377203E-02 
426	 2,85034946039598E-02 
427	 2,67767949243522E-02 
428	 2,32152771841368E-02 
429	 2,10546179168783E-02 
430	 2,09420499496362E-02 
431	 2,25094030805683E-02 
432	 2,25705906643536E-02 
433	 2,33964139866274E-02 
434	 2,67224914718858E-02 
435	 2,60239543652372E-02 
436	 2,25452499811207E-02 
437	 2,19525109700713E-02 
438	 2,42408684274476E-02 
439	 0,028399465529189 
440	 2,81200940942915E-02 
441	 2,57923576946284E-02 
442	 2,51738483033705E-02 
443	 2,34359185997093E-02 
444	 2,11656468640868E-02 
445	 2,23639744140676E-02 
446	 2,31748502636085E-02 
447	 2,16160862226236E-02 
448	 0,022533432913419 
449	 2,48703228993658E-02 
450	 2,55978558416436E-02 
451	 2,43458561685818E-02 
452	 2,22934500949788E-02 
453	 2,56671375102709E-02 
454	 2,86068608304475E-02 
455	 0,025692589524204 
456	 2,23627088389438E-02 
457	 0,019907267233879 
458	 0,018780614746583 
459	 1,74361792408683E-02 
460	 1,59999662344288E-02 
461	 1,94430140566241E-02 
462	 2,44125926743838E-02 
463	 2,60094625110832E-02 
464	 2,33610974244998E-02 
465	 1,89865110225333E-02 
466	 2,26882707471014E-02 
467	 2,57737988719798E-02 
468	 2,30031383508891E-02 
469	 2,20918858680169E-02 
470	 2,28872223748581E-02 
471	 2,25595218586906E-02 
472	 2,46080195553204E-02 
473	 0,028728853787319 
474	 2,91815415301497E-02 
475	 2,60990673737994E-02 
476	 2,02715775763987E-02 
477	 1,77070075537838E-02 
478	 1,88742040384815E-02 
479	 2,12759008716479E-02 
480	 2,27512951079145E-02 
481	 2,23990479537137E-02 
482	 2,28772353484562E-02 
483	 2,37965247243744E-02 
484	 2,42007193539021E-02 
485	 2,39453964944289E-02 
486	 2,30576444747541E-02 
487	 2,15608847413698E-02 
488	 2,13066040153752E-02 
489	 2,33720223308087E-02 
490	 2,33117866664244E-02 
491	 2,22024104565746E-02 
492	 2,45404085187736E-02 
493	 2,51641409228477E-02 
494	 0,022927184815953 
495	 2,20329542852152E-02 
496	 2,18445476570149E-02 
497	 2,12811079651496E-02 
498	 2,14573583929328E-02 
499	 2,20897862100583E-02 
500	 0,021400080240509 
501	 2,19225835904288E-02 
502	 2,45024175817156E-02 
503	 2,39216381896235E-02 
504	 2,15558618257129E-02 
505	 2,09570186247576E-02 
506	 2,01573039340004E-02 
507	 1,92072928381026E-02 
508	 2,05091486701671E-02 
509	 2,19691665240012E-02 
510	 0,021728047690302 
511	 0,021712569897236 
512	 0,022083962776075 
513	 0,022278097652994 
514	 2,26189419935039E-02 
515	 2,30739225514767E-02 
516	 2,25603682147672E-02 
517	 2,19420842272175E-02 
518	 2,25442273503934E-02 
519	 2,29670607003713E-02 
520	 2,28320710833272E-02 
521	 2,21036541513497E-02 
522	 2,17278061509107E-02 
523	 2,23044312770619E-02 
524	 2,25011454511692E-02 
525	 2,23155468004396E-02 
526	 2,21520120648286E-02 
527	 0,022513995609426 
528	 2,33640398345267E-02 
529	 0,023523938869455 
530	 2,30435281237941E-02 
531	 2,21081361054453E-02 
532	 2,19652516433969E-02 
533	 2,24245776639938E-02 
534	 2,17783088103333E-02 
535	 0,021475933239892 
536	 2,22411229520486E-02 
537	 2,24826911738451E-02 
538	 2,24768084420354E-02 
539	 2,32347279140702E-02 
540	 2,31523787863287E-02 
541	 0,022087839121942 
542	 2,16988186117025E-02 
543	 2,19245101485525E-02 
544	 2,25842042724971E-02 
545	 0,023192614043142 
546	 2,34823412643675E-02 
547	 2,31791937189727E-02 
548	 2,23839250168958E-02 
549	 2,14901589859356E-02 
550	 2,27011416737273E-02 
551	 2,43507847635325E-02 
552	 2,35670153702212E-02 
553	 2,20701518571043E-02 
554	 2,07146834581026E-02 
555	 2,05709681416796E-02 
556	 0,021398107648977 
557	 0,022797842114791 
558	 2,28226589900297E-02 
559	 2,19165992562648E-02 
560	 2,21852188461321E-02 
561	 2,23719406144129E-02 
562	 2,20950200705998E-02 
563	 2,20892341931524E-02 
564	 2,20184118597411E-02 
565	 2,13668371325256E-02 
566	 2,08153155097955E-02 
567	 2,06701981957829E-02 
568	 2,13072884402514E-02 
569	 2,18739395117188E-02 
570	 2,18334332110638E-02 
571	 0,022251945169463 
572	 2,28819098836777E-02 
573	 2,29072703408263E-02 
574	 2,23195144381798E-02 
575	 2,15101954526791E-02 
576	 2,25658024537829E-02 
577	 2,38847265174213E-02 
578	 2,35527616645678E-02 
579	 2,38960954619634E-02 
580	 2,47925001727469E-02 
581	 2,41777114015319E-02 
582	 2,34674035166564E-02 
583	 2,35299565416679E-02 
584	 2,44251265393519E-02 
585	 0,025224301340247 
586	 2,42346826969244E-02 
587	 2,40611607328854E-02 
588	 2,51134079180623E-02 
589	 2,52537125304875E-02 
590	 2,55224214602989E-02 
591	 2,68551631933724E-02 
592	 2,69900093240545E-02 
593	 2,60312301034197E-02 
594	 2,53704936033919E-02 
595	 2,53485927433028E-02 
596	 2,60230405457368E-02 
597	 2,61959562014788E-02 
598	 2,60014484644659E-02 
599	 2,58460604037761E-02 
600	 0,025999767488126 
601	 2,62899181345286E-02 
602	 2,56474662135395E-02 
603	 2,50882551419829E-02 
604	 2,53569417930816E-02 
605	 2,51230620252781E-02 
606	 2,45811273687897E-02 
607	 2,47941533409842E-02 
608	 2,48182982828751E-02 
609	 2,45053397644996E-02 
610	 2,52422772020308E-02 
611	 2,57877438084842E-02 
612	 2,45195771334003E-02 
613	 2,34653319652127E-02 
614	 2,31577629796273E-02 
615	 2,35172243843177E-02 
616	 2,38466641696594E-02 
617	 2,37157182943859E-02 
618	 2,37327938252098E-02 
619	 2,39389689813938E-02 
620	 2,42882179212085E-02 
621	 2,43549786128752E-02 
622	 2,39787842702395E-02 
623	 2,31893062314602E-02 
624	 2,24875720068877E-02 
625	 2,23976212410634E-02 
626	 2,33226454090764E-02 
627	 2,45810750057942E-02 
628	 2,40149899370616E-02 
629	 2,33949377921442E-02 
630	 2,36350831037103E-02 
631	 0,024198991664154 
632	 2,47591622148965E-02 
633	 2,49172310633653E-02 
634	 2,46714167061535E-02 
635	 2,43146029693096E-02 
636	 2,49552705721276E-02 
637	 2,59163846603047E-02 
638	 0,026540343937363 
639	 0,026425765085134 
640	 0,02591858119079 
641	 2,60118400647099E-02 
642	 2,65646327548686E-02 
643	 2,73336600263885E-02 
644	 2,71445019431765E-02 
645	 2,65417515946435E-02 
646	 2,63730400621585E-02 
647	 2,65016140405577E-02 
648	 2,67252064068147E-02 
649	 2,63289815336439E-02 
650	 2,62970346617435E-02 
651	 2,71120100047399E-02 
652	 2,67527596331407E-02 
653	 2,57377106845486E-02 
654	 2,57427766899844E-02 
655	 2,56636354489704E-02 
656	 2,52351535128363E-02 
657	 2,48567758222858E-02 
658	 2,48031182849204E-02 
659	 2,52732839944591E-02 
660	 2,46320536000578E-02 
661	 2,32670835948752E-02 
662	 0,02335863464904 
663	 2,34832600407234E-02 
664	 2,30034242530905E-02 
665	 2,28242637730561E-02 
666	 2,26166013073598E-02 
667	 2,16860373395392E-02 
668	 2,13627496061075E-02 
669	 2,18070443730635E-02 
670	 2,20543427466285E-02 
671	 2,21136061049539E-02 
672	 2,19937044016136E-02 
673	 2,15286500260314E-02 
674	 2,09648498077532E-02 
675	 2,08038476095605E-02 
676	 2,13150988625385E-02 
677	 2,22975410734402E-02 
678	 2,20124243055429E-02 
679	 2,14049029546452E-02 
680	 2,17534294610754E-02 
681	 2,21088769706597E-02 
682	 2,22904842917979E-02 
683	 2,24693458058741E-02 
684	 2,24720439976028E-02 
685	 2,22977647751497E-02 
686	 2,27571613379885E-02 
687	 2,35347960101783E-02 
688	 2,38844910353964E-02 
689	 2,41894611721638E-02 
690	 2,47076276078811E-02 
691	 2,60283226817663E-02 
692	 2,74394810468724E-02 
693	 2,83398760822128E-02 
694	 2,98056125002156E-02 
695	 0,031935708923102 
696	 3,43750284502299E-02 
697	 3,73856736029721E-02 
698	 4,09669338815316E-02 
699	 0,044522253320331 
700	 4,83504690023406E-02 
701	 5,29022640297917E-02 
702	 5,76375799944705E-02 
703	 6,25193311210446E-02 
704	 6,79586858586541E-02 
705	 7,35475441841381E-02 
706	 7,90141016821582E-02 
707	 8,44953201116256E-02 
708	 0,089882118602997 
709	 9,49338987610955E-02 
710	 0,100166894484919 
711	 0,105552689729287 
712	 0,110238206125242 
713	 0,114665519668736 
714	 0,119265753260035 
715	 0,124034675628578 
716	 0,128559611381154 
717	 0,131749201258675 
718	 0,134950196051038 
719	 0,138612200894961 
720	 0,141695500023941 
721	 0,144436351621767 
722	 0,147259546057209 
723	 0,150012730494495 
724	 0,152581857665265 
725	 0,154753710964547 
726	 0,156490039593375 
727	 0,157887100092642 
728	 0,15988403972811 
729	 0,16196868109688 
730	 0,163004015464584 
731	 0,163842198097472 
732	 0,164806437198317 
733	 0,16609433952499 
734	 0,167247216968395 
735	 0,167885079105665 
736	 0,168565461419184 
737	 0,169418341179734 
738	 0,170537826823742 
739	 0,171434855932327 
740	 0,171957703140384 
741	 0,172552171500053 
742	 0,172986241325347 
743	 0,172969728804155 
744	 0,173405809816379 
745	 0,174246902042449 
746	 0,174670854905708 
747	 0,175027189887738 
748	 0,175489037616462 
749	 0,175990371967711 
750	 0,176367107756937 
751	 0,176369585700645 
752	 0,176667083232313 
753	 0,177220509897434 
754	 0,177111457863088 
755	 0,176971464385449 
756	 0,177270548529785 
757	 0,177777427371576 
758	 0,178259034578246 
759	 0,178326683995028 
760	 0,178370617047356 
761	 0,178508118956023 
762	 0,178626693679923 
763	 0,178711307850065 
764	 0,178776009446071 
765	 0,179261821147436 
766	 0,179888659511446 
767	 0,179686317348706 
768	 0,179650960396993 
769	 0,180083730638012 
770	 0,180216045747617 
771	 0,180345366366965 
772	 0,180872203797884 
773	 0,180769814721187 
774	 0,180186552730522 
775	 0,180209507636901 
776	 0,180717110496654 
777	 0,181511901461862 
778	 0,181607792998012 
779	 0,181390796573867 
780	 0,181604138110779 
781	 0,181676178205737 
782	 0,181550514978559 
783	 0,181487073638021 
784	 0,181681309795756 
785	 0,182176941014394 
786	 0,18220208783501 
787	 0,181934658597651 
788	 0,181889572926342 
789	 0,181946848470321 
790	 0,182010485587759 
791	 0,181735826123954 
792	 0,181632783828588 
793	 0,182055704970698 
794	 0,182198164420569 
795	 0,182012845683788 
796	 0,181644240947685 
797	 0,181750260888959 
798	 0,182314249992972 
799	 0,182021589868897 
800	 0,181592749577502 
801	 0,181739773532155 
802	 0,1817607685131 
803	 0,181779585296342 
804	 0,182497707279409 
805	 0,182906419310137 
806	 0,182747470462484 
807	 0,182913131911473 
808	 0,183087192379274 
809	 0,182896805679564 
810	 0,183053409230902 
811	 0,183486570943187 
812	 0,183576341118511 
813	 0,18372041014035 
814	 0,183980569592847 
815	 0,183701078855157 
816	 0,183471710101744 
817	 0,1840205734863 
818	 0,184204316657144 
819	 0,184042058522187 
820	 0,184386333977462 
821	 0,184868817876252 
822	 0,185231101571922 
823	 0,184988677382143 
824	 0,184713578822744 
825	 0,185185524164994 
826	 0,185828821367923 
827	 0,186286212812078 
828	 0,185875493313347 
829	 0,185684859516823 
830	 0,18617344705167 
831	 0,186170171153457 
832	 0,186083339467556 
833	 0,186626057792283 
834	 0,186607671904394 
835	 0,186150908215783 
836	 0,186701084299444 
837	 0,187016534355821 
838	 0,186557727005707 
839	 0,186561164245798 
840	 0,186946759312421 
841	 0,187398837498006 
842	 0,187588539673517 
843	 0,187468170154848 
844	 0,187206568056091 
845	 0,187143791449348 
846	 0,18743914816867 
847	 0,187731063564401 
848	 0,187809093680829 
849	 0,187456454929153 
850	 0,187408400069655 
851	 0,187676014723866 
852	 0,187637806080155 
853	 0,187447146405495 
854	 0,187224994624615 
855	 0,18722411223712 
856	 0,187309285200933 
857	 0,187255121810636 
858	 0,186944492010533 
859	 0,186593228635304 
860	 0,186948376074992 
861	 0,187467522582042 
862	 0,187786262389271 
863	 0,187555714112775 
864	 0,18734685549139 
865	 0,187928416918717 
866	 0,188450778746208 
867	 0,188725430054642 
868	 0,188876698010864 
869	 0,188876946173904 
870	 0,18873293445164 
871	 0,188491488639271 
872	 0,188349214438082 
873	 0,188513295117118 
874	 0,188377386345498 
875	 0,188255671299194 
876	 0,189497825105306 
877	 0,190470694171186 
878	 0,190540681658274 
879	 0,190584960510778 
880	 0,190525081468722 
881	 0,190243550392508 
882	 0,190337663462431 
883	 0,190807513469821 
884	 0,191307092964424 
885	 0,191909969931556 
886	 0,192461150433197 
887	 0,192215229482386 
888	 0,19187925400936 
889	 0,192129614596516 
890	 0,19238666085095 
891	 0,192466565749274 
892	 0,192190058466999 
893	 0,192006079952476 
894	 0,192000248281685 
895	 0,191688674038908 
896	 0,191848785022168 
897	 0,192902690295165 
898	 0,192745759035689 
899	 0,192004584376456 
900	 0,192365143096327 
901	 0,192897531569598 
902	 0,193347937618906 
903	 0,1938491027278 
904	 0,193905775067042 
905	 0,193314655263476 
906	 0,192987917451521 
907	 0,19287564523975 
908	 0,192724853132857 
909	 0,193262406670466 
910	 0,194096313517474 
911	 0,193382124577774 
912	 0,193193058822023 
913	 0,194269849301759 
914	 0,19468414717513 
915	 0,194768723295616 
916	 0,195026283430539 
917	 0,194212843414645 
918	 0,19286321738359 
919	 0,192893945120447 
920	 0,192919125595488 
921	 0,192624702717604 
922	 0,192894400656325 
923	 0,193012838861506 
924	 0,192500167884468 
925	 0,193148897490656 
926	 0,193948788317402 
927	 0,192590121970105 
928	 0,191887465898027 
929	 0,192110822493432 
930	 0,190960964151083 
931	 0,190469074249577 
932	 0,191525367300136 
933	 0,191589027313258 
934	 0,190800936815433 
935	 0,189761735679726 
936	 0,189608983064919 
937	 0,190085224955977 
938	 0,18965470089896 
939	 0,18909862450889 
940	 0,188592476533305 
941	 0,187562525549197 
942	 0,186582403287344 
943	 0,186143488874622 
944	 0,185440216608429 
945	 0,184901814567545 
946	 0,185611980201342 
947	 0,185194534531531 
948	 0,183431440341639 
949	 0,182185782254826 
950	 0,181470670831839 
951	 0,181084880685717 
952	 0,179474896535893 
953	 0,177671156276466 
954	 0,177080609987983 
955	 0,176789105051639 
956	 0,176416375345847 
957	 0,175401112264721 
958	 0,175061727099432 
959	 0,175690350028816 
960	 0,176643197269319 
961	 0,175881799495882 
962	 0,172506470130094 
963	 0,172282178012364 
964	 0,173882367315141 
965	 0,174006343431314 
966	 0,172840626453257 
967	 0,171164624295052 
968	 0,171601406555448 
969	 0,171141933011941 
970	 0,16924973504175 
971	 0,170476785077213 
972	 0,171544884502288 
973	 0,169626331094619 
974	 0,170466473157817 
975	 0,172263612246902 
976	 0,170160964886197 
977	 0,168864287966143 
978	 0,169517500716083 
979	 0,171245734212019 
980	 0,173160913793499 
981	 0,17441556629821 
982	 0,173664727837556 
983	 0,172597042930338 
984	 0,17295641823097 
985	 0,173052785385954 
986	 0,172939149131338 
987	 0,173181126306126 
988	 0,175280541468909 
989	 0,178084309635213 
990	 0,17600738751378 
991	 0,174177994883607 
992	 0,174848689190301 
993	 0,17338850457113 
994	 0,172948438933128 
995	 0,176727717336233 
996	 0,178684047857727 
997	 0,178474843913703 
998	 0,177756730593943 
999	 0,177189615263238 
1000	 0,177263514448876 
1001	 0,178329003607494 
1002	 0,180079402403087 
1003	 0,182104378465712 
1004	 0,183617502605826 
1005	 0,183452202844506 
1006	 0,181050784989348 
1007	 0,182076070440732 
1008	 0,184236832884137 
1009	 0,181740561882171 
1010	 0,181099741819161 
1011	 0,182840828832656 
1012	 0,182351951569766 
1013	 0,183887952675393 
1014	 0,188306902726456 
1015	 0,190574713394495 
1016	 0,190448156899408 
1017	 0,188465157771562 
1018	 0,189066215278485 
1019	 0,190534413635672 
1020	 0,189331201028614 
1021	 0,187098874336108 
1022	 0,185675604729049 
1023	 0,189087185235258 
1024	 0,191477590786743 
1025	 0,191588746588331 
1026	 0,193872931478929 
1027	 0,19513787045943 
1028	 0,193974464242548 
1029	 0,196135545887765 
1030	 0,197815791974682 
1031	 0,194435388439427 
1032	 0,19489903323346 
1033	 0,198345197705704 
1034	 0,199389763295075 
1035	 0,200905217507738 
1036	 0,202399658787031 
1037	 0,199373499941977 
1038	 0,197659709553239 
1039	 0,199712429837319 
1040	 0,202930675868533 
1041	 0,203955554435276 
1042	 0,201041239623098 
1043	 0,202866446377404 
1044	 0,207227798980346 
1045	 0,209267577156677 
1046	 0,204565850483161 
1047	 0,196231014693346 
1048	 0,194297974242003 
1049	 0,196208919447423 
1050	 0,200755628137209 
1051	 0,206322265607251 
1052	 0,206934249594677 
1053	 0,201244060151063 
1054	 0,198999397380231 
1055	 0,199404734301554 
1056	 0,201309704095845 
1057	 0,205475482861078 
1058	 0,20934546862549 
1059	 0,209615924677782 
1060	 0,201597200121185 
1061	 0,193687797788502 
1062	 0,207248494897933 
1063	 0,215935812936773 
1064	 0,212778962096959 
1065	 0,201678894494685 
1066	 0,202887279465923 
1067	 0,220593244073484 
1068	 0,222825282130961 
1069	 0,216724278103782 
1070	 0,210341879081836 
1071	 0,213864137226355 
1072	 0,215705622108666 
1073	 0,201911375197462 
1074	 0,199295869138784 
1075	 0,206586053277571 
