Wavelength	PENFOUL00410.asd
325	 0,223208568425377 
326	 0,300531069555544 
327	 0,341322066221238 
328	 0,288251396036352 
329	 0,26607685963194 
330	 0,253281616880435 
331	 0,239232794097656 
332	 0,203618279929626 
333	 0,157642718104191 
334	 0,208112055084792 
335	 0,225602429084033 
336	 0,181217089755575 
337	 0,1340753004048 
338	 0,100887906185245 
339	 0,101581058518508 
340	 0,157258458077875 
341	 0,20762372105029 
342	 0,130705087803038 
343	 0,076142723575213 
344	 0,090986770771289 
345	 0,122138748076226 
346	 0,119588421803357 
347	 5,35241291248509E-02 
348	 1,49594273109124E-02 
349	 1,48886051994107E-02 
350	 6,19625658863215E-02 
351	 9,27092446261028E-02 
352	 8,46149786340269E-02 
353	 6,83096682928119E-02 
354	 5,89494439506763E-02 
355	 6,40685565642996E-02 
356	 6,08224859693735E-02 
357	 0,055993862628758 
358	 8,86549403945051E-02 
359	 9,82778425316336E-02 
360	 6,60990196365759E-02 
361	 4,81329707601706E-02 
362	 4,33922913932812E-02 
363	 0,040196218242102 
364	 5,23611487972914E-02 
365	 7,22280594823158E-02 
366	 5,96870410598254E-02 
367	 5,28888069987267E-02 
368	 7,07844461361515E-02 
369	 6,60716757291152E-02 
370	 5,33618697248692E-02 
371	 7,04944420998835E-02 
372	 6,47201628143625E-02 
373	 3,66435361519413E-02 
374	 6,14683882252756E-02 
375	 7,78985626729385E-02 
376	 4,76365301865917E-02 
377	 4,73259887498096E-02 
378	 6,45607486119065E-02 
379	 4,66958527104312E-02 
380	 2,65305763205145E-02 
381	 0,019412709601554 
382	 3,59992267849774E-02 
383	 0,050518208628902 
384	 4,08758188244205E-02 
385	 2,65731982683642E-02 
386	 1,75685124683552E-02 
387	 2,75916696691568E-02 
388	 3,94263755444465E-02 
389	 4,41646790936603E-02 
390	 3,70857722532631E-02 
391	 3,14017289640609E-02 
392	 4,27221819782967E-02 
393	 4,81077566207948E-02 
394	 4,27262988529322E-02 
395	 2,52743326340197E-02 
396	 1,96373675128371E-02 
397	 0,03398075878605 
398	 2,68039501382411E-02 
399	 0,014281749147638 
400	 2,73285997999611E-02 
401	 2,47759793203614E-02 
402	 8,26227959987805E-03 
403	 2,44809415458066E-02 
404	 0,040110738759702 
405	 0,034026871986822 
406	 2,39196835777562E-02 
407	 1,73027669421979E-02 
408	 2,51989585734644E-02 
409	 0,030711856112056 
410	 2,83119385152957E-02 
411	 1,75390340373367E-02 
412	 1,20774019326575E-02 
413	 2,34424678186119E-02 
414	 2,46770634290542E-02 
415	 1,72190133393685E-02 
416	 1,81083241621358E-02 
417	 1,96517467556366E-02 
418	 1,98987350363384E-02 
419	 2,66907868359909E-02 
420	 3,08272266028209E-02 
421	 2,06419268839048E-02 
422	 1,57875725956379E-02 
423	 1,88307817508739E-02 
424	 2,16024746461066E-02 
425	 2,15367419731849E-02 
426	 1,79171052419953E-02 
427	 1,87570150874274E-02 
428	 2,16030567692269E-02 
429	 2,03578908638767E-02 
430	 1,67971089689916E-02 
431	 1,32464324609026E-02 
432	 1,75457998895461E-02 
433	 2,14719926382345E-02 
434	 1,81276025041211E-02 
435	 1,63615711195845E-02 
436	 1,79515572912779E-02 
437	 2,39605363899429E-02 
438	 2,58625004788834E-02 
439	 2,11761106610764E-02 
440	 1,84357696230629E-02 
441	 1,80022400758758E-02 
442	 1,92616893822098E-02 
443	 2,01603537439834E-02 
444	 2,00188606318929E-02 
445	 1,84159785739988E-02 
446	 0,018575960656163 
447	 2,18037217157711E-02 
448	 2,09695854359999E-02 
449	 1,84989585833864E-02 
450	 2,10471932151757E-02 
451	 2,06389783286684E-02 
452	 1,68766300418579E-02 
453	 1,91888683835528E-02 
454	 2,31435311124308E-02 
455	 2,41421341065673E-02 
456	 0,021744784326284 
457	 1,75429173264014E-02 
458	 1,59865207429951E-02 
459	 1,43688357952665E-02 
460	 1,26528383547286E-02 
461	 1,74043624986765E-02 
462	 2,28512576851581E-02 
463	 2,07361214739951E-02 
464	 1,92358564484819E-02 
465	 1,99497786044509E-02 
466	 2,10686474493686E-02 
467	 0,021011219537333 
468	 1,90502573430496E-02 
469	 1,86679754205612E-02 
470	 1,94512808316375E-02 
471	 1,94894124332021E-02 
472	 1,97406534249157E-02 
473	 2,04347629844218E-02 
474	 2,17862000810305E-02 
475	 2,17534396519529E-02 
476	 1,85412234762024E-02 
477	 1,65568660522894E-02 
478	 1,64202921610986E-02 
479	 1,70211912885654E-02 
480	 1,76628740185539E-02 
481	 1,80262462652342E-02 
482	 1,90072235997943E-02 
483	 0,019938105357494 
484	 1,98211898269194E-02 
485	 1,81761907864729E-02 
486	 1,60664186767797E-02 
487	 1,75617568421774E-02 
488	 1,99611245641895E-02 
489	 2,09810429462214E-02 
490	 1,99368441678178E-02 
491	 1,77862018733474E-02 
492	 0,016831550465841 
493	 1,60931972262885E-02 
494	 1,55598112330306E-02 
495	 1,65622625795587E-02 
496	 0,017729718549301 
497	 1,74661318879372E-02 
498	 1,66877765620488E-02 
499	 0,01598312341486 
500	 1,64140360568795E-02 
501	 1,69238434837086E-02 
502	 1,69367787809597E-02 
503	 1,71928325804068E-02 
504	 1,72000921895454E-02 
505	 1,58752007413542E-02 
506	 1,52329483389175E-02 
507	 1,57717444524532E-02 
508	 1,67945075909982E-02 
509	 1,72170056663474E-02 
510	 1,62744737667911E-02 
511	 1,71591308367799E-02 
512	 1,91081790013934E-02 
513	 0,01864868185025 
514	 0,017687966365835 
515	 1,71462429753346E-02 
516	 1,71950057306213E-02 
517	 1,78384956823404E-02 
518	 1,91160884101135E-02 
519	 1,79780886755896E-02 
520	 1,52837111388282E-02 
521	 1,72814685201122E-02 
522	 1,88541099804867E-02 
523	 0,016578803729633 
524	 1,61939309762435E-02 
525	 0,017467497062806 
526	 1,80098493648956E-02 
527	 1,76138592633722E-02 
528	 1,64864877425389E-02 
529	 1,67406362076881E-02 
530	 1,70406322164656E-02 
531	 1,57257125091758E-02 
532	 1,56993383321011E-02 
533	 1,68431202222204E-02 
534	 1,66147676549574E-02 
535	 0,016461821703367 
536	 1,71165501446169E-02 
537	 1,71796257457118E-02 
538	 1,70449353047303E-02 
539	 1,78668531354607E-02 
540	 1,78767993930706E-02 
541	 1,68211274950777E-02 
542	 1,61708388711705E-02 
543	 1,59799438533996E-02 
544	 1,62011431007559E-02 
545	 1,64909481416321E-02 
546	 0,016652428809549 
547	 1,64403427755776E-02 
548	 1,60837900499058E-02 
549	 1,58375474631063E-02 
550	 1,66311490184009E-02 
551	 1,73748201302382E-02 
552	 1,62104187520678E-02 
553	 1,58123112616372E-02 
554	 1,65873744616537E-02 
555	 1,68724350676997E-02 
556	 1,67644652042206E-02 
557	 1,64600167627843E-02 
558	 1,71263812119138E-02 
559	 1,81337478329873E-02 
560	 0,017350870269295 
561	 0,016523511278654 
562	 1,63624446182843E-02 
563	 1,66375853939738E-02 
564	 1,66438119858054E-02 
565	 1,54951413810243E-02 
566	 1,45540176811374E-02 
567	 1,44792476764016E-02 
568	 0,016296323565088 
569	 1,74455459323301E-02 
570	 1,63452748003308E-02 
571	 1,62802918007435E-02 
572	 1,71279924090488E-02 
573	 1,75863994939334E-02 
574	 1,71408251718812E-02 
575	 0,01599089497158 
576	 1,64574797838018E-02 
577	 1,75188085002716E-02 
578	 1,78484297857139E-02 
579	 1,85502440675696E-02 
580	 1,94090456263259E-02 
581	 1,91052831448911E-02 
582	 1,85113617212516E-02 
583	 1,82553041110146E-02 
584	 1,90035080227361E-02 
585	 1,99439348712368E-02 
586	 1,95034029198689E-02 
587	 1,91690233217202E-02 
588	 1,92628093845221E-02 
589	 1,88959366381055E-02 
590	 1,91186720057524E-02 
591	 2,07719932628524E-02 
592	 2,06239488825894E-02 
593	 1,91523470844343E-02 
594	 1,94866946027938E-02 
595	 1,97927198267992E-02 
596	 1,94318230185046E-02 
597	 1,99551945852516E-02 
598	 2,05599726918461E-02 
599	 0,01981833364441 
600	 1,95122627030915E-02 
601	 1,98271871644646E-02 
602	 1,93379395131243E-02 
603	 1,91327442240013E-02 
604	 1,99301056666617E-02 
605	 1,94421926885588E-02 
606	 1,81784141302969E-02 
607	 1,83972423219412E-02 
608	 1,82163342491603E-02 
609	 1,73797208616939E-02 
610	 1,86291568436552E-02 
611	 1,99647395942916E-02 
612	 1,87089758496483E-02 
613	 1,80101892636271E-02 
614	 1,82330848980161E-02 
615	 1,77519352348076E-02 
616	 1,76243179130895E-02 
617	 1,84183874673621E-02 
618	 1,89071054596375E-02 
619	 1,89915328486842E-02 
620	 1,88678155891202E-02 
621	 1,86759403781768E-02 
622	 1,83856809043639E-02 
623	 1,74172513313734E-02 
624	 1,67127875876095E-02 
625	 1,72203436120556E-02 
626	 1,75122046065793E-02 
627	 1,74424330087671E-02 
628	 1,75136739429832E-02 
629	 1,78566737588167E-02 
630	 1,84930966471247E-02 
631	 1,89773443877363E-02 
632	 1,92611115540733E-02 
633	 1,93897652915645E-02 
634	 1,91717821511497E-02 
635	 1,87850130355664E-02 
636	 1,90583273557726E-02 
637	 1,96151859972507E-02 
638	 2,01093183206483E-02 
639	 2,07347167791085E-02 
640	 2,12499952721129E-02 
641	 2,09521344196533E-02 
642	 2,09087409686643E-02 
643	 2,13915338127312E-02 
644	 2,11342207577796E-02 
645	 2,06649029670464E-02 
646	 2,08087036494389E-02 
647	 2,08383872903729E-02 
648	 2,05958764884525E-02 
649	 2,00398799606074E-02 
650	 2,01542991742637E-02 
651	 2,13691502206633E-02 
652	 2,11449626785437E-02 
653	 2,01176388585302E-02 
654	 2,03986792878281E-02 
655	 2,04796058982034E-02 
656	 0,020002463714495 
657	 1,95823754544603E-02 
658	 1,95698013093009E-02 
659	 2,02231315177774E-02 
660	 1,98364953136883E-02 
661	 1,86419953480258E-02 
662	 1,83653676812954E-02 
663	 1,84832240440143E-02 
664	 1,86522617002657E-02 
665	 1,83127366421811E-02 
666	 1,76123478771768E-02 
667	 1,68578689160792E-02 
668	 1,67474234779554E-02 
669	 1,73232859325807E-02 
670	 1,78863050465129E-02 
671	 1,81143444800105E-02 
672	 1,77928170444877E-02 
673	 1,74388351451191E-02 
674	 1,71921108959268E-02 
675	 1,70257901968496E-02 
676	 1,73666269260097E-02 
677	 1,81764499152789E-02 
678	 1,83482639081367E-02 
679	 1,81933811005683E-02 
680	 1,81959787775115E-02 
681	 0,018228203048011 
682	 1,82950024713807E-02 
683	 1,84564167941252E-02 
684	 1,85953776367869E-02 
685	 1,86533634295212E-02 
686	 1,87569413200772E-02 
687	 1,89370184177841E-02 
688	 1,92029117580909E-02 
689	 1,95710564619912E-02 
690	 2,01375698215862E-02 
691	 2,12981240807534E-02 
692	 2,24014323826507E-02 
693	 2,29359270983641E-02 
694	 2,43418232443402E-02 
695	 2,65848639155165E-02 
696	 0,028805076417827 
697	 3,14209194627947E-02 
698	 3,46002358651347E-02 
699	 3,83058534968884E-02 
700	 4,25868478674964E-02 
701	 4,75049081491903E-02 
702	 0,052456506260665 
703	 5,74104874558954E-02 
704	 6,28576457897547E-02 
705	 6,87110489250139E-02 
706	 7,48677084665621E-02 
707	 8,09855550980386E-02 
708	 8,69649180893384E-02 
709	 9,27444877470529E-02 
710	 9,85749224556772E-02 
711	 0,104413292895608 
712	 0,109704297126383 
713	 0,114950141998257 
714	 0,12055463823849 
715	 0,125359387700834 
716	 0,129462866482291 
717	 0,13371017879833 
718	 0,137839817343776 
719	 0,141751259345613 
720	 0,145489966276824 
721	 0,14882772777287 
722	 0,151492070708104 
723	 0,154294119822035 
724	 0,157250088134207 
725	 0,159697714060904 
726	 0,161743296685448 
727	 0,163561175452349 
728	 0,166044078594456 
729	 0,168470804314768 
730	 0,169310480094382 
731	 0,170457945277783 
732	 0,172238555660058 
733	 0,173372257054526 
734	 0,174187181858042 
735	 0,175022221888527 
736	 0,175989763480517 
737	 0,177008941908695 
738	 0,177771982306 
739	 0,17868352903119 
740	 0,179775321936293 
741	 0,180341304212384 
742	 0,180724482504225 
743	 0,181382423266132 
744	 0,182034373530225 
745	 0,182559627685411 
746	 0,182777823334024 
747	 0,182959914227442 
748	 0,183281251724715 
749	 0,183828004340747 
750	 0,184353784984475 
751	 0,184464217406092 
752	 0,184750510654834 
753	 0,185234482438818 
754	 0,185330619492047 
755	 0,185426635445423 
756	 0,18579380367961 
757	 0,186103941261139 
758	 0,186403949584763 
759	 0,186947529417864 
760	 0,187015913775571 
761	 0,186625143031202 
762	 0,187035405905337 
763	 0,187556929948411 
764	 0,18751367312759 
765	 0,187651008747259 
766	 0,187971022478336 
767	 0,188123416868711 
768	 0,18822528421548 
769	 0,188316831799597 
770	 0,18837695743087 
771	 0,188505877148107 
772	 0,188810632742184 
773	 0,188869592804618 
774	 0,188718162685427 
775	 0,188699598493361 
776	 0,18909242571646 
777	 0,189878102506799 
778	 0,189778787928118 
779	 0,1894275521344 
780	 0,189959657727645 
781	 0,190315440428562 
782	 0,190337887677967 
783	 0,190503268265533 
784	 0,190698829454425 
785	 0,190843064829004 
786	 0,190864464011483 
787	 0,190926123262791 
788	 0,191343722191398 
789	 0,19162925725681 
790	 0,191652024277713 
791	 0,191564431824372 
792	 0,191472304650309 
793	 0,191477157322007 
794	 0,191735899708607 
795	 0,192028618751672 
796	 0,191792231392443 
797	 0,191905742218763 
798	 0,19251840921523 
799	 0,192845263499225 
800	 0,192920909389381 
801	 0,192840186821946 
802	 0,19291654035152 
803	 0,193186140111225 
804	 0,193659376936098 
805	 0,193520967347031 
806	 0,192806478178877 
807	 0,193571555937029 
808	 0,194462279864517 
809	 0,193942582627328 
810	 0,19369045541801 
811	 0,193880453571036 
812	 0,193963043790232 
813	 0,194218927573417 
814	 0,1946521226727 
815	 0,194649859258539 
816	 0,194590774964363 
817	 0,194967780809541 
818	 0,19504177192092 
819	 0,194854749846524 
820	 0,194987873782333 
821	 0,195430472228682 
822	 0,196008479257696 
823	 0,195596180769686 
824	 0,195070985499327 
825	 0,19567839761198 
826	 0,196419970119416 
827	 0,196831445820145 
828	 0,196177139071391 
829	 0,196008040509902 
830	 0,196914852705973 
831	 0,196836823027258 
832	 0,196436247099922 
833	 0,196904567640943 
834	 0,197133516496629 
835	 0,196998344565591 
836	 0,19695758071687 
837	 0,197120716223471 
838	 0,1975379741524 
839	 0,19800566504356 
840	 0,198473036310673 
841	 0,198915940562141 
842	 0,198767026178736 
843	 0,198180120119999 
844	 0,198072601076516 
845	 0,198296660683296 
846	 0,198757776229729 
847	 0,199397664869733 
848	 0,199725286440453 
849	 0,19911009271231 
850	 0,198714113380646 
851	 0,1988069823759 
852	 0,199224337968279 
853	 0,199285775905776 
854	 0,198747124138275 
855	 0,198717197770183 
856	 0,199153510691405 
857	 0,199807896602429 
858	 0,200345424275784 
859	 0,200489440394716 
860	 0,199643678708128 
861	 0,199347964650777 
862	 0,200227578653684 
863	 0,2005014990732 
864	 0,200445163491932 
865	 0,200667301559942 
866	 0,201388312771737 
867	 0,202196093346449 
868	 0,201641390986288 
869	 0,201237565601647 
870	 0,201513111730908 
871	 0,200770213764985 
872	 0,200154978038615 
873	 0,201144107890678 
874	 0,201504525623128 
875	 0,201187381397676 
876	 0,201580638143506 
877	 0,201847619931859 
878	 0,201773674697525 
879	 0,202210576933994 
880	 0,202516968248329 
881	 0,201997828068774 
882	 0,201960539750428 
883	 0,2023747700049 
884	 0,202387034915442 
885	 0,202743296672267 
886	 0,203380136136556 
887	 0,202631909032405 
888	 0,20184374710914 
889	 0,202328580200372 
890	 0,203254350302236 
891	 0,204016400690072 
892	 0,2036469808482 
893	 0,203428521379562 
894	 0,20362778094791 
895	 0,203329687076562 
896	 0,203158934613847 
897	 0,203541585318671 
898	 0,203454593077462 
899	 0,203130296811806 
900	 0,203254846497665 
901	 0,203444000681963 
902	 0,203644245958256 
903	 0,20410683771516 
904	 0,204335876707846 
905	 0,204073184334467 
906	 0,203853669431757 
907	 0,203849792605115 
908	 0,204187768704345 
909	 0,20467227385129 
910	 0,205147030713035 
911	 0,205429472643962 
912	 0,205224883541061 
913	 0,204530086626889 
914	 0,204080590645528 
915	 0,204325740561813 
916	 0,205526831907085 
917	 0,204834828816783 
918	 0,2031005595225 
919	 0,204087942874255 
920	 0,20443451856787 
921	 0,203504055566374 
922	 0,204137473820921 
923	 0,204633737728726 
924	 0,203652870387981 
925	 0,20343953895516 
926	 0,203865847891199 
927	 0,204067502965349 
928	 0,203856276267539 
929	 0,203292304265916 
930	 0,202875080774431 
931	 0,202752636920286 
932	 0,202967351454535 
933	 0,203192392779232 
934	 0,203109995829991 
935	 0,202409594069618 
936	 0,201854864954104 
937	 0,201657740268159 
938	 0,201869363802194 
939	 0,20213214361544 
940	 0,201991267084662 
941	 0,200111422074573 
942	 0,198260363354502 
943	 0,198067310109993 
944	 0,198636709056202 
945	 0,199465014964278 
946	 0,199970024774811 
947	 0,199677472354773 
948	 0,198562599043836 
949	 0,197110579254599 
950	 0,195978265724186 
951	 0,195451351607624 
952	 0,194619558938562 
953	 0,193230930971603 
954	 0,191233342823828 
955	 0,191611059882849 
956	 0,193222760263817 
957	 0,191410618694105 
958	 0,19003359902333 
959	 0,190228954597632 
960	 0,190913207097848 
961	 0,190749604431635 
962	 0,189124386815807 
963	 0,189807879636891 
964	 0,191166749402138 
965	 0,189966775265818 
966	 0,188933070734568 
967	 0,188671660263156 
968	 0,188945919484738 
969	 0,188784319641242 
970	 0,187892090885412 
971	 0,187359571013564 
972	 0,186829236081232 
973	 0,186062929942211 
974	 0,186870935059013 
975	 0,188218883592094 
976	 0,187753815454571 
977	 0,188180520228638 
978	 0,189556957428534 
979	 0,189471684662261 
980	 0,189439593795896 
981	 0,189985602341704 
982	 0,189434595510658 
983	 0,189130205472988 
984	 0,19038206131381 
985	 0,190744097582714 
986	 0,190181421242519 
987	 0,189461989177898 
988	 0,190160499428064 
989	 0,191719262049716 
990	 0,190135622718465 
991	 0,189530146867391 
992	 0,191623754384701 
993	 0,192759539688092 
994	 0,192910167108146 
995	 0,192491620631583 
996	 0,193061723027875 
997	 0,194146507951844 
998	 0,194224482622078 
999	 0,194328072177381 
1000	 0,194923768537317 
1001	 0,196724454858678 
1002	 0,19757468071068 
1003	 0,19692137128089 
1004	 0,198776299312355 
1005	 0,199567220041033 
1006	 0,196202319377121 
1007	 0,197376590518813 
1008	 0,19964169370767 
1009	 0,194258643648977 
1010	 0,195304135021213 
1011	 0,202223062229846 
1012	 0,20018454557627 
1013	 0,198658400502736 
1014	 0,201338356895131 
1015	 0,205198336674965 
1016	 0,206348648284687 
1017	 0,202540347869826 
1018	 0,202891207261394 
1019	 0,205941544578304 
1020	 0,207399627514011 
1021	 0,205383239917332 
1022	 0,201621142557855 
1023	 0,202318232468482 
1024	 0,204579660222591 
1025	 0,207131873042364 
1026	 0,208593156203142 
1027	 0,209696383066825 
1028	 0,210815754442254 
1029	 0,210577050995083 
1030	 0,210257789277707 
1031	 0,211307396418329 
1032	 0,209856155049715 
1033	 0,20911024655255 
1034	 0,216946110313169 
1035	 0,220352679725355 
1036	 0,216046857694353 
1037	 0,20552130276151 
1038	 0,201560407943486 
1039	 0,208932474104324 
1040	 0,21762240375352 
1041	 0,22079140877958 
1042	 0,214922868812098 
1043	 0,216669743500314 
1044	 0,223077733688214 
1045	 0,226615870295001 
1046	 0,222294841861985 
1047	 0,215570160828712 
1048	 0,222828296870862 
1049	 0,225355610925377 
1050	 0,219631775374715 
1051	 0,214133842644622 
1052	 0,215259167551525 
1053	 0,223203867074744 
1054	 0,220248902789492 
1055	 0,215529520878565 
1056	 0,218024287825591 
1057	 0,223904929077305 
1058	 0,229073134270701 
1059	 0,229103109849829 
1060	 0,225992921933881 
1061	 0,223256322271364 
1062	 0,227631142324307 
1063	 0,232987364620939 
1064	 0,234536716236863 
1065	 0,221082810419772 
1066	 0,217065795117078 
1067	 0,229719520817507 
1068	 0,232749992360545 
1069	 0,227951130396372 
1070	 0,219796258347953 
1071	 0,223432608310438 
1072	 0,231479672959642 
1073	 0,231986210233136 
1074	 0,232553856884669 
1075	 0,231488456992594 
