Wavelength	PENFOUL00078.asd
325	 5,14262586233976E-02 
326	 0,161131933040208 
327	 0,158679618454613 
328	 1,78974206566454E-02 
329	 3,85651322233105E-02 
330	 0,15142369464573 
331	 0,218965112399125 
332	 0,253088703551369 
333	 0,258704611788218 
334	 0,161265311426878 
335	 8,98411224100912E-02 
336	 7,45259726250689E-02 
337	 6,29247455271288E-02 
338	 3,94599245993618E-02 
339	 4,17746949191655E-03 
340	 0,022334641217729 
341	 7,22912078557581E-02 
342	 0,119242829000978 
343	 0,12011528720972 
344	 6,97066906853921E-02 
345	 6,36830083579773E-02 
346	 7,32799215134381E-02 
347	 6,23484344825403E-02 
348	 5,40765939200466E-02 
349	 5,44069526625806E-02 
350	 8,07312272645792E-02 
351	 6,59876318017121E-02 
352	 5,27775765073589E-04 
353	 2,18876836023744E-02 
354	 6,59357238350599E-02 
355	 6,14245253151018E-02 
356	 4,56212402961834E-02 
357	 3,40112656329268E-02 
358	 5,22233917515357E-02 
359	 7,23987007915128E-02 
360	 8,11438988809945E-02 
361	 6,35976664916355E-02 
362	 4,56307306841665E-02 
363	 6,75633821019372E-02 
364	 7,76563532053312E-02 
365	 6,49700665665527E-02 
366	 2,58627343372817E-02 
367	 2,07021989910354E-02 
368	 7,16631785621278E-02 
369	 5,28754325259516E-02 
370	 1,26733701567087E-02 
371	 6,91049670707485E-02 
372	 7,40892571594709E-02 
373	 1,50672483178735E-02 
374	 3,68026882091648E-02 
375	 0,06064175604617 
376	 3,51254924319322E-02 
377	 5,02860091054523E-02 
378	 8,14711400062465E-02 
379	 5,16814407208637E-02 
380	 3,01760630084947E-02 
381	 3,74972388791798E-02 
382	 4,30806784533988E-02 
383	 4,43916041492729E-02 
384	 4,09766086161932E-02 
385	 3,70678061270408E-02 
386	 3,63188814650895E-02 
387	 4,49536991720069E-02 
388	 5,40826955483074E-02 
389	 5,98381577466613E-02 
390	 6,61130536221737E-02 
391	 0,069524683725525 
392	 6,56828210518342E-02 
393	 4,80091903739918E-02 
394	 2,61925582645836E-02 
395	 3,05364565145466E-02 
396	 3,82063631619504E-02 
397	 3,79017229948732E-02 
398	 4,23281187214567E-02 
399	 4,86862215010737E-02 
400	 5,15513804839789E-02 
401	 4,89098708920803E-02 
402	 4,26907299168266E-02 
403	 4,16825415732189E-02 
404	 4,42319583033177E-02 
405	 4,81376815700185E-02 
406	 0,045771377329744 
407	 4,16679127219181E-02 
408	 4,79643090952347E-02 
409	 5,10590218103804E-02 
410	 0,048211643842283 
411	 4,59674709376177E-02 
412	 4,56403351184459E-02 
413	 4,77861538667536E-02 
414	 4,42530628393174E-02 
415	 3,77898524422857E-02 
416	 3,91824169851076E-02 
417	 4,24673057618329E-02 
418	 4,54430078473239E-02 
419	 5,17601809934881E-02 
420	 5,40707766891623E-02 
421	 4,32595396722722E-02 
422	 4,21369775892972E-02 
423	 5,12515473877834E-02 
424	 5,33452705805079E-02 
425	 5,17259588494312E-02 
426	 4,88170528810155E-02 
427	 4,74193575627224E-02 
428	 4,61349282246235E-02 
429	 0,041275406856193 
430	 3,84652704594544E-02 
431	 3,99596125993821E-02 
432	 4,80816225028365E-02 
433	 5,28452175482874E-02 
434	 4,64368324011168E-02 
435	 4,26215724171096E-02 
436	 4,39570213800051E-02 
437	 5,05506484943292E-02 
438	 5,39740052298263E-02 
439	 5,13184337179504E-02 
440	 4,92418964084486E-02 
441	 4,85011201722028E-02 
442	 0,049205424630758 
443	 5,06894561573811E-02 
444	 5,20743931976898E-02 
445	 5,10944404652486E-02 
446	 0,051037805617078 
447	 5,34827741885676E-02 
448	 5,34687167360439E-02 
449	 5,18525571974184E-02 
450	 5,13219215394982E-02 
451	 5,27523263174849E-02 
452	 5,54569511859051E-02 
453	 0,054722062010629 
454	 5,37790607771335E-02 
455	 5,55213139263047E-02 
456	 5,44225393280676E-02 
457	 5,07020192315192E-02 
458	 4,68566133502128E-02 
459	 0,047483327165891 
460	 5,31200081592421E-02 
461	 5,31256742881324E-02 
462	 5,06138450663021E-02 
463	 5,10691493446666E-02 
464	 5,22058498658588E-02 
465	 5,34505983011503E-02 
466	 5,46264427178838E-02 
467	 5,50971498126453E-02 
468	 5,45522997806881E-02 
469	 5,38746777872364E-02 
470	 5,38571022519033E-02 
471	 5,58235635856256E-02 
472	 5,70925391887572E-02 
473	 5,69097096951049E-02 
474	 5,66557620638452E-02 
475	 5,59358925156142E-02 
476	 5,43923589193902E-02 
477	 5,40990206364981E-02 
478	 5,51175142898233E-02 
479	 0,05656949145651 
480	 5,70240951690879E-02 
481	 5,60655038541939E-02 
482	 5,61906347931899E-02 
483	 0,05700872719268 
484	 5,75118197554859E-02 
485	 5,85044634130449E-02 
486	 5,99412355672384E-02 
487	 6,11093132408876E-02 
488	 6,18796155501075E-02 
489	 6,20921895909788E-02 
490	 6,08551276320067E-02 
491	 5,95778354023458E-02 
492	 6,19801935055829E-02 
493	 6,26356149798774E-02 
494	 0,060382354949183 
495	 6,02761095487667E-02 
496	 6,06128019706657E-02 
497	 5,91045613469888E-02 
498	 5,96374817294821E-02 
499	 6,20108254013674E-02 
500	 6,29804138204442E-02 
501	 6,36617839194243E-02 
502	 6,44965143547158E-02 
503	 6,41485374325037E-02 
504	 6,30533365108648E-02 
505	 0,062136550834276 
506	 6,16740370962435E-02 
507	 6,21049222987438E-02 
508	 6,48756181183499E-02 
509	 6,66639280331426E-02 
510	 6,47560846834437E-02 
511	 6,45311770277694E-02 
512	 6,58059519312192E-02 
513	 6,50504857820981E-02 
514	 6,54524032499838E-02 
515	 6,77835176592195E-02 
516	 6,78693410178936E-02 
517	 6,68139317913734E-02 
518	 6,66910701872686E-02 
519	 6,72224080599256E-02 
520	 6,84219271128239E-02 
521	 7,08239476653234E-02 
522	 7,14593100433301E-02 
523	 0,06860459061293 
524	 6,78616473841017E-02 
525	 0,069068117060532 
526	 6,97370906359832E-02 
527	 7,04718349920953E-02 
528	 7,12987297612104E-02 
529	 7,19964596431981E-02 
530	 7,21908298785018E-02 
531	 7,15061015509971E-02 
532	 7,13617725138119E-02 
533	 7,19531955576298E-02 
534	 7,27771841491607E-02 
535	 7,33523694848449E-02 
536	 7,34051286329465E-02 
537	 7,32938266093756E-02 
538	 0,073543458263846 
539	 0,075117361686717 
540	 7,57602853078986E-02 
541	 7,50042036821905E-02 
542	 7,41907407472595E-02 
543	 7,41638413687175E-02 
544	 7,55886636558375E-02 
545	 7,68514172523059E-02 
546	 7,74678743980085E-02 
547	 7,72025516673585E-02 
548	 7,67629282592006E-02 
549	 7,66819390195001E-02 
550	 7,77677403296152E-02 
551	 7,90837518844223E-02 
552	 7,91092200585284E-02 
553	 7,85247556742596E-02 
554	 7,78116972819717E-02 
555	 7,79061542201298E-02 
556	 7,86825911412592E-02 
557	 7,98919323517034E-02 
558	 8,00538887372867E-02 
559	 7,96214187531833E-02 
560	 8,05848199903736E-02 
561	 8,09544717210085E-02 
562	 8,01722201064835E-02 
563	 7,99263073666822E-02 
564	 8,01689134639047E-02 
565	 8,06175644433906E-02 
566	 8,11389745122122E-02 
567	 8,16892024922873E-02 
568	 8,24344787354201E-02 
569	 8,28577579383353E-02 
570	 8,26636985496493E-02 
571	 8,26463477635475E-02 
572	 8,29955006664929E-02 
573	 8,39013049716362E-02 
574	 8,42496141050998E-02 
575	 8,39092923155045E-02 
576	 8,46349078851724E-02 
577	 8,54117832715572E-02 
578	 8,50076669370736E-02 
579	 8,51884859664542E-02 
580	 8,60759422452029E-02 
581	 0,08673968066241 
582	 8,72869080388742E-02 
583	 8,77715362801126E-02 
584	 8,83722512189326E-02 
585	 8,87662196013674E-02 
586	 8,82828129153393E-02 
587	 8,85110441792188E-02 
588	 8,95763935499095E-02 
589	 8,96065088595411E-02 
590	 8,96227452054251E-02 
591	 9,05716117553393E-02 
592	 9,07256916711017E-02 
593	 9,02457911474156E-02 
594	 0,090476496841481 
595	 9,08387067323995E-02 
596	 9,10905931855123E-02 
597	 9,13951079969725E-02 
598	 9,15875622640633E-02 
599	 9,13991165974642E-02 
600	 9,15392456492597E-02 
601	 9,19163546694969E-02 
602	 9,13073164914311E-02 
603	 9,07873342040497E-02 
604	 9,11593825145002E-02 
605	 9,12050032181769E-02 
606	 9,09760831793188E-02 
607	 9,11714626946848E-02 
608	 0,090972452809942 
609	 9,04857134172382E-02 
610	 9,22570363605642E-02 
611	 9,38867608171982E-02 
612	 0,092242281657068 
613	 9,10154673633087E-02 
614	 9,08981306199015E-02 
615	 0,090815025271968 
616	 9,10116673888403E-02 
617	 9,15831960079682E-02 
618	 9,21489705117486E-02 
619	 0,092496824637633 
620	 9,23535576190804E-02 
621	 9,21509609312633E-02 
622	 9,20357709034214E-02 
623	 9,18815264211154E-02 
624	 9,17101361757598E-02 
625	 9,15646468370189E-02 
626	 9,19191338675941E-02 
627	 9,24621192024625E-02 
628	 0,091972041806007 
629	 9,16065782543617E-02 
630	 9,19605839406634E-02 
631	 0,092629525974599 
632	 9,32849183284623E-02 
633	 9,35056492096739E-02 
634	 9,35155124029941E-02 
635	 9,35070982049121E-02 
636	 9,39589362032898E-02 
637	 9,44498246301273E-02 
638	 9,46126524959542E-02 
639	 9,46628429748396E-02 
640	 0,094701245262432 
641	 9,48666791177886E-02 
642	 9,50996977588071E-02 
643	 9,53449923312712E-02 
644	 9,54146139375869E-02 
645	 9,54739016653111E-02 
646	 9,57575408269972E-02 
647	 9,59826863252008E-02 
648	 9,60380352317548E-02 
649	 9,57401346290011E-02 
650	 9,57944098010203E-02 
651	 9,65225309410447E-02 
652	 0,09619268149331 
653	 9,53581816882247E-02 
654	 9,56775146903823E-02 
655	 9,60114268162153E-02 
656	 0,095871106869472 
657	 9,47220661234429E-02 
658	 0,09386556485356 
659	 9,45881422295067E-02 
660	 9,43294200993502E-02 
661	 9,31284931828525E-02 
662	 9,27139415071826E-02 
663	 9,26464474392603E-02 
664	 9,26165896451983E-02 
665	 9,19189996797678E-02 
666	 9,09412012943976E-02 
667	 9,03875391200883E-02 
668	 0,090306127624058 
669	 9,05913961512654E-02 
670	 9,07253093397116E-02 
671	 9,07569481993477E-02 
672	 9,07466886213543E-02 
673	 0,090865402563841 
674	 9,09597282163896E-02 
675	 9,04563188008783E-02 
676	 9,05845585044164E-02 
677	 9,16032474326392E-02 
678	 9,21745551829604E-02 
679	 9,23276215504059E-02 
680	 9,22461524202601E-02 
681	 9,24247129303522E-02 
682	 9,28753508129006E-02 
683	 9,31126231844943E-02 
684	 9,35909884731709E-02 
685	 9,45023525878031E-02 
686	 9,50972471240747E-02 
687	 9,55403620542304E-02 
688	 9,62893395941161E-02 
689	 0,097298111868511 
690	 9,84931773028275E-02 
691	 9,95357093740672E-02 
692	 0,100759364487162 
693	 0,102427161921935 
694	 0,103674510218457 
695	 0,104658591131293 
696	 0,10626105652366 
697	 0,107688109176282 
698	 0,108779369047668 
699	 0,110628043091538 
700	 0,112733360624587 
701	 0,114336156822195 
702	 0,115732120151506 
703	 0,117026849786171 
704	 0,118372174594616 
705	 0,119622283871554 
706	 0,120746546118689 
707	 0,122320301744604 
708	 0,123974299586518 
709	 0,124870973037475 
710	 0,125856213018678 
711	 0,126995761759452 
712	 0,127340316600756 
713	 0,127587003489333 
714	 0,128393223271636 
715	 0,129162764657422 
716	 0,12980205318593 
717	 0,130367395663962 
718	 0,130921496036304 
719	 0,131504378493403 
720	 0,132197631143804 
721	 0,132736742089713 
722	 0,132786851374683 
723	 0,133100537676179 
724	 0,133814483405438 
725	 0,134757335162718 
726	 0,135349078550201 
727	 0,135339143967798 
728	 0,135965330513905 
729	 0,136757570572242 
730	 0,136551875470598 
731	 0,136509711660708 
732	 0,136908946057237 
733	 0,137306505571231 
734	 0,137622463776659 
735	 0,137798877676964 
736	 0,137838743545513 
737	 0,137946811171823 
738	 0,138660665545529 
739	 0,139164761162233 
740	 0,139195693836461 
741	 0,139258733434875 
742	 0,139358983649007 
743	 0,139453778514087 
744	 0,139462231817883 
745	 0,139513030418026 
746	 0,140122363832716 
747	 0,140362094958815 
748	 0,139924391777412 
749	 0,140533439415753 
750	 0,141419769267537 
751	 0,141094869139058 
752	 0,140936676086262 
753	 0,141170282682744 
754	 0,141123755036446 
755	 0,141077077788417 
756	 0,141255847945798 
757	 0,141715561808959 
758	 0,142300199234178 
759	 0,1427169848092 
760	 0,142917328178199 
761	 0,142912897177564 
762	 0,142912515172443 
763	 0,142862723493389 
764	 0,142729845542357 
765	 0,142942615793301 
766	 0,143405431198982 
767	 0,1436800666112 
768	 0,143835024009925 
769	 0,143904764684238 
770	 0,144003434259088 
771	 0,14418590508038 
772	 0,144494097715668 
773	 0,144698628819859 
774	 0,144735686621913 
775	 0,14452927240334 
776	 0,14467095330887 
777	 0,145324427234481 
778	 0,145249563457869 
779	 0,144897702091704 
780	 0,145127355292541 
781	 0,145476815623517 
782	 0,145795176650868 
783	 0,145967006050113 
784	 0,146166641640042 
785	 0,14648713475748 
786	 0,146662146961821 
787	 0,146798470757106 
788	 0,147171474600442 
789	 0,147269865419518 
790	 0,147063410288669 
791	 0,147133213822731 
792	 0,147114323750023 
793	 0,146787581345509 
794	 0,147188408834115 
795	 0,147923606790012 
796	 0,147749373846608 
797	 0,147981517956136 
798	 0,148752484477917 
799	 0,148544668676306 
800	 0,148098217794689 
801	 0,148177217867771 
802	 0,148494852217154 
803	 0,148890942147088 
804	 0,149115347907725 
805	 0,149154056488801 
806	 0,14905251431918 
807	 0,149127148431007 
808	 0,149275734034164 
809	 0,14936284923262 
810	 0,149449939236473 
811	 0,149508532818418 
812	 0,149388562661939 
813	 0,149519155981209 
814	 0,149977719185154 
815	 0,15001207025548 
816	 0,149969165340911 
817	 0,150320181056033 
818	 0,150338665726766 
819	 0,150052576735586 
820	 0,149973798444576 
821	 0,150276079849201 
822	 0,150869936298158 
823	 0,150503818319468 
824	 0,150061726521154 
825	 0,150810907498329 
826	 0,151486667533227 
827	 0,15171319004111 
828	 0,151322438163159 
829	 0,151041638915709 
830	 0,151165871539014 
831	 0,150661781607233 
832	 0,150354316771457 
833	 0,151475385570702 
834	 0,151568560657211 
835	 0,150682707207211 
836	 0,151130207879449 
837	 0,151574052049952 
838	 0,151371542763631 
839	 0,1513505909876 
840	 0,151511313520635 
841	 0,151725202386233 
842	 0,151980701885634 
843	 0,152165953579889 
844	 0,15195944672372 
845	 0,15176367294254 
846	 0,151844077335698 
847	 0,152339816039862 
848	 0,152776496750089 
849	 0,152489300756006 
850	 0,152427422429748 
851	 0,152623191179094 
852	 0,152292773653102 
853	 0,152186330595589 
854	 0,152591656609607 
855	 0,152510622292047 
856	 0,152195083422668 
857	 0,152138244185044 
858	 0,152413655141046 
859	 0,152804894489001 
860	 0,15255553036298 
861	 0,152243165906461 
862	 0,152204490384637 
863	 0,152450320436395 
864	 0,152846355050756 
865	 0,153206168274561 
866	 0,153238173269296 
867	 0,153017067676068 
868	 0,153009815793541 
869	 0,153011398458913 
870	 0,152929082826593 
871	 0,152738287320478 
872	 0,152694860203172 
873	 0,153077128101282 
874	 0,152981620101243 
875	 0,152517239115041 
876	 0,152552796143016 
877	 0,152913557268991 
878	 0,153354274766873 
879	 0,15280865749843 
880	 0,152474111083111 
881	 0,153605999738407 
882	 0,153556409072547 
883	 0,152574670559448 
884	 0,1527279353027 
885	 0,153048438735166 
886	 0,153269605122132 
887	 0,153690039334419 
888	 0,154104855253758 
889	 0,154285832799299 
890	 0,153888684118393 
891	 0,153378029197593 
892	 0,153893022323763 
893	 0,154280682864619 
894	 0,15425903957945 
895	 0,154398466377819 
896	 0,154506989959658 
897	 0,15442696211924 
898	 0,154262139335883 
899	 0,154067855161712 
900	 0,153885259244933 
901	 0,154136302791672 
902	 0,154626876670893 
903	 0,154144292438631 
904	 0,153808984392474 
905	 0,154227139991345 
906	 0,154278924630037 
907	 0,154102088936092 
908	 0,154083546291071 
909	 0,154529798890996 
910	 0,155070796329126 
911	 0,154151842290307 
912	 0,153995219580304 
913	 0,155372137687171 
914	 0,156080805871741 
915	 0,156131688614812 
916	 0,155794376973694 
917	 0,155611666988787 
918	 0,155486995850939 
919	 0,154761605548707 
920	 0,154279183548182 
921	 0,154390480837182 
922	 0,155360249233662 
923	 0,155305989744257 
924	 0,153143543402675 
925	 0,15444599255401 
926	 0,157211947720661 
927	 0,156285828745591 
928	 0,155116964765895 
929	 0,154664463241024 
930	 0,154624265266218 
931	 0,155309005544546 
932	 0,156618769557686 
933	 0,156911389600839 
934	 0,156258430290573 
935	 0,155068530692514 
936	 0,154349679290554 
937	 0,15447696175291 
938	 0,155829847762229 
939	 0,15637303280319 
940	 0,155515758489892 
941	 0,154850946444204 
942	 0,154843160455191 
943	 0,155712933658093 
944	 0,156200493907241 
945	 0,156193155440645 
946	 0,155923969761664 
947	 0,155863761536703 
948	 0,155981816686778 
949	 0,155469540007463 
950	 0,155347910326185 
951	 0,155953819472823 
952	 0,155211937845178 
953	 0,154810840809045 
954	 0,156855916056443 
955	 0,157409597395622 
956	 0,156348568574004 
957	 0,155475569630206 
958	 0,155595797309938 
959	 0,15670795536545 
960	 0,157165555865417 
961	 0,156433718147938 
962	 0,154594312809838 
963	 0,155392158780011 
964	 0,157386730667338 
965	 0,157595981697494 
966	 0,156110434222578 
967	 0,154309626740196 
968	 0,156595243152253 
969	 0,158100404419411 
970	 0,157002499701076 
971	 0,155767599583537 
972	 0,155260131926767 
973	 0,156043888489645 
974	 0,157048531459792 
975	 0,157494576531087 
976	 0,156415614035111 
977	 0,155746993062628 
978	 0,15621997143967 
979	 0,158261320690747 
980	 0,159815146692948 
981	 0,159817226946195 
982	 0,159290084365267 
983	 0,157932282013141 
984	 0,15576227771558 
985	 0,157848953022826 
986	 0,161492359597854 
987	 0,159734614280069 
988	 0,158195299248774 
989	 0,158279933381723 
990	 0,158946735615085 
991	 0,159370245741308 
992	 0,159098992406624 
993	 0,158632251528815 
994	 0,158055163614492 
995	 0,157550336111368 
996	 0,158846616987163 
997	 0,160723226481459 
998	 0,160338973996895 
999	 0,158966980754543 
1000	 0,157867671404639 
1001	 0,159930658799278 
1002	 0,162590457983296 
1003	 0,16419816864715 
1004	 0,164196014245995 
1005	 0,162301229837341 
1006	 0,158672251183049 
1007	 0,156877672318278 
1008	 0,156869126360766 
1009	 0,157209324211919 
1010	 0,157705481365528 
1011	 0,158120531617146 
1012	 0,158152695573698 
1013	 0,158647717665091 
1014	 0,159887557642683 
1015	 0,161495982567321 
1016	 0,161658128753067 
1017	 0,159444524243974 
1018	 0,160594144251879 
1019	 0,162588008747766 
1020	 0,160563357408329 
1021	 0,158906102004782 
1022	 0,1588433875527 
1023	 0,160709540399287 
1024	 0,162562442501704 
1025	 0,163294926474271 
1026	 0,161494504154066 
1027	 0,160827129294725 
1028	 0,163127747378067 
1029	 0,163241922616418 
1030	 0,162812491925061 
1031	 0,164116509563111 
1032	 0,16194803228367 
1033	 0,159042111183873 
1034	 0,162775465240132 
1035	 0,166346763636506 
1036	 0,166680728198509 
1037	 0,159502905540909 
1038	 0,156662514365622 
1039	 0,162130081980126 
1040	 0,164999062467323 
1041	 0,164897261451103 
1042	 0,162634709921182 
1043	 0,164047108628263 
1044	 0,167343334317286 
1045	 0,16876712044269 
1046	 0,164989021747832 
1047	 0,159837961231973 
1048	 0,164583495891447 
1049	 0,165990861351164 
1050	 0,162082176618373 
1051	 0,161400585849345 
1052	 0,162226282369545 
1053	 0,162809432890721 
1054	 0,158295881100386 
1055	 0,154650871608946 
1056	 0,157545221456766 
1057	 0,165773385243247 
1058	 0,172182978069691 
1059	 0,168393416696228 
1060	 0,164305941427713 
1061	 0,164566703339856 
1062	 0,174440547837989 
1063	 0,17715033285861 
1064	 0,171451085501472 
1065	 0,172753458222699 
1066	 0,176051297642509 
1067	 0,1780013917217 
1068	 0,172947395885977 
1069	 0,170969833248923 
1070	 0,177046876305327 
1071	 0,169368239156997 
1072	 0,158516460603244 
1073	 0,161249112202413 
1074	 0,173106079742467 
1075	 0,182252652339024 
