Wavelength	PENFOUL00629.asd
325	-0,10078048544745 
326	-0,142461725909837 
327	-8,90688122698312E-02 
328	 1,91049725485289E-02 
329	 0,109287205526058 
330	 0,150066282162734 
331	 0,115643189935366 
332	 6,62118069358565E-02 
333	 1,89951686889445E-02 
334	 0,103632010326196 
335	 0,10547897563627 
336	 1,2884435601793E-03 
337	-7,23927139978552E-03 
338	 1,01408842017527E-02 
339	-0,014195251734108 
340	 3,13336666861873E-02 
341	 0,105858317360764 
342	 0,126492282457061 
343	 8,91786637473843E-02 
344	 1,16985632347095E-02 
345	 4,44388490502532E-02 
346	 8,03308532437024E-02 
347	 1,58292968626334E-02 
348	 1,67158888964288E-02 
349	 6,11365678389705E-02 
350	 3,89532788799823E-02 
351	 1,41524136050181E-02 
352	 8,16531726032495E-03 
353	 2,38550879837121E-03 
354	 7,58079333188937E-04 
355	 0,006935947130784 
356	 2,30833211977282E-03 
357	-5,67141628250656E-03 
358	 1,83887523964338E-02 
359	 3,69704611755531E-02 
360	 3,60935947715546E-02 
361	 2,46649596616305E-02 
362	 2,28418363887068E-02 
363	 5,70878993551492E-02 
364	 0,059265737478609 
365	 2,81125351120727E-02 
366	 1,29869922481528E-02 
367	 1,30721746264247E-02 
368	 2,38287441474071E-02 
369	 1,92115669797331E-02 
370	 1,38090121195907E-02 
371	 4,27944757841266E-02 
372	 2,85259485390318E-02 
373	-0,023341816427156 
374	 1,81693479711846E-02 
375	 6,17234118237288E-02 
376	 4,87831454786237E-02 
377	 0,040969252590458 
378	 3,70209564589236E-02 
379	 7,21962462984483E-03 
380	-1,05181804922455E-02 
381	-7,67023121950586E-04 
382	 3,26329410602458E-02 
383	 5,13245778949708E-02 
384	 2,47787256464813E-02 
385	 6,12507319298499E-03 
386	 2,91036171282771E-03 
387	 1,82544459416399E-03 
388	 1,36807066510622E-02 
389	 0,034568540890033 
390	 2,62290638397366E-02 
391	 1,25825422443511E-02 
392	 2,49151326629169E-02 
393	 0,017006248814348 
394	-3,55636735548013E-03 
395	 1,76541166222017E-02 
396	 0,024137542907383 
397	-6,1259670057032E-03 
398	-5,25800851520359E-03 
399	 1,47477955628527E-02 
400	 2,59956070603642E-02 
401	 2,27236580169429E-02 
402	 0,010018474649152 
403	 1,55311655349592E-02 
404	 2,22939067686246E-02 
405	 1,93059772392574E-02 
406	 1,54994883094268E-02 
407	 1,44502185624632E-02 
408	 2,15103771865981E-02 
409	 2,53796915190089E-02 
410	 2,42198830067841E-02 
411	 2,78930105258889E-02 
412	 0,027487089811197 
413	 1,53569171231737E-02 
414	 1,16966228553761E-02 
415	 1,57073726579889E-02 
416	 1,59062412425641E-02 
417	 1,30078842315846E-02 
418	 9,26607435697069E-03 
419	 0,017847505433186 
420	 2,65200200047553E-02 
421	 1,95142255445823E-02 
422	 1,46805349720371E-02 
423	 1,44848765112063E-02 
424	 1,13879892796776E-02 
425	 1,05716214669766E-02 
426	 0,014520789810875 
427	 1,78787933923394E-02 
428	 1,86723726449541E-02 
429	 1,46094148971794E-02 
430	 0,012507189888099 
431	 1,37396290520312E-02 
432	 0,013699406778167 
433	 1,42254062086726E-02 
434	 1,67466227000295E-02 
435	 1,51009192268657E-02 
436	 0,011581985227814 
437	 1,48836558644344E-02 
438	 1,79839246180188E-02 
439	 1,84195068102148E-02 
440	 0,019909887278666 
441	 2,07776973083375E-02 
442	 1,85969684703824E-02 
443	 1,59867990186464E-02 
444	 1,39891146652953E-02 
445	 1,32668441139863E-02 
446	 1,42156572853694E-02 
447	 1,65915758259401E-02 
448	 0,016735681267703 
449	 1,52747759280414E-02 
450	 1,42392160105794E-02 
451	 1,45504772711664E-02 
452	 0,016485852299165 
453	 1,95484293815363E-02 
454	 2,20053699492184E-02 
455	 2,21601865474439E-02 
456	 0,018305192058163 
457	 0,012271834590877 
458	 8,73255155117855E-03 
459	 9,40259392457664E-03 
460	 1,40164123803086E-02 
461	 0,015252089267977 
462	 1,48341053115669E-02 
463	 1,60670244686177E-02 
464	 1,60481778661675E-02 
465	 1,50966705037661E-02 
466	 1,66990341724218E-02 
467	 1,81574662140786E-02 
468	 1,77158281323678E-02 
469	 0,016347819615443 
470	 1,53833213714868E-02 
471	 1,71869347398736E-02 
472	 1,81981375472594E-02 
473	 1,77380754550848E-02 
474	 1,91576847792321E-02 
475	 1,90577375748067E-02 
476	 1,42719908069915E-02 
477	 1,19344128806551E-02 
478	 1,30039400286408E-02 
479	 1,61738917482013E-02 
480	 1,72184578676043E-02 
481	 0,01460785922875 
482	 1,35828751041622E-02 
483	 1,41848048323165E-02 
484	 1,56125891687002E-02 
485	 1,55287243978193E-02 
486	 1,43816911331696E-02 
487	 1,68023009810458E-02 
488	 1,87184146476057E-02 
489	 1,72372894040755E-02 
490	 1,66554123977221E-02 
491	 1,71395591242412E-02 
492	 1,76986545167549E-02 
493	 1,65278007511425E-02 
494	 0,013909225407793 
495	 1,53554405380212E-02 
496	 0,017175656782305 
497	 1,48771527910185E-02 
498	 1,44531709490824E-02 
499	 1,61020220926673E-02 
500	 0,01606608102 
501	 1,61983374288336E-02 
502	 1,73202689614552E-02 
503	 0,017712756616053 
504	 1,68535458783098E-02 
505	 1,40013938267615E-02 
506	 1,31685683954855E-02 
507	 1,49476651584505E-02 
508	 0,016136139050297 
509	 1,60094023955677E-02 
510	 1,42406374911273E-02 
511	 0,014087005203625 
512	 1,49772199400408E-02 
513	 1,34345698381245E-02 
514	 1,29757000502212E-02 
515	 0,014704060333619 
516	 0,015159656835052 
517	 1,52536539190042E-02 
518	 1,67655574776322E-02 
519	 1,74117891972639E-02 
520	 0,016822147740761 
521	 1,58444103857934E-02 
522	 1,50936389282925E-02 
523	 1,50135134929943E-02 
524	 1,52476077035339E-02 
525	 1,56132533773424E-02 
526	 1,58370347329468E-02 
527	 1,63246778542867E-02 
528	 1,70140485015089E-02 
529	 0,016969532377072 
530	 1,64845528798058E-02 
531	 1,59769890287139E-02 
532	 1,53830991583679E-02 
533	 1,49556884034187E-02 
534	 1,53763515985654E-02 
535	 1,60389086554396E-02 
536	 1,64979433406695E-02 
537	 1,63785902765242E-02 
538	 1,61003420919609E-02 
539	 1,65856025506818E-02 
540	 1,66295215879616E-02 
541	 1,59068979955943E-02 
542	 1,45855025571076E-02 
543	 1,40670981945713E-02 
544	 1,55676629733835E-02 
545	 1,62099055165129E-02 
546	 1,58910758480387E-02 
547	 1,62447378317379E-02 
548	 1,60024951660139E-02 
549	 1,49112124317447E-02 
550	 1,55514881240674E-02 
551	 1,68437225118756E-02 
552	 1,67238560169641E-02 
553	 1,60710772353933E-02 
554	 1,53735805915513E-02 
555	 1,54838722337263E-02 
556	 1,61240077615517E-02 
557	 1,69695125391739E-02 
558	 1,73527216316497E-02 
559	 1,71946506975417E-02 
560	 1,65798531139201E-02 
561	 1,63655961220504E-02 
562	 1,67356338623269E-02 
563	 1,63441341294834E-02 
564	 1,54494231048959E-02 
565	 1,45409021162694E-02 
566	 1,47666952225026E-02 
567	 1,59255916397218E-02 
568	 1,61946015691027E-02 
569	 1,61753526028534E-02 
570	 0,016282916878466 
571	 1,62456681782319E-02 
572	 1,62629134405574E-02 
573	 1,69345860980012E-02 
574	 1,68443504434169E-02 
575	 1,58649516768095E-02 
576	 1,61506323373547E-02 
577	 1,69945262956747E-02 
578	 1,74382223433251E-02 
579	 1,85321839499211E-02 
580	 1,97973303000752E-02 
581	 1,91789892752223E-02 
582	 1,81345851356665E-02 
583	 1,76357510828791E-02 
584	 1,80920039845252E-02 
585	 1,89585719170551E-02 
586	 1,92096590681235E-02 
587	 1,91876793054883E-02 
588	 1,89907032775847E-02 
589	 1,85144096972659E-02 
590	 1,87256093311846E-02 
591	 2,03657952014776E-02 
592	 2,04540252630851E-02 
593	 1,92061052929397E-02 
594	 0,018815765834055 
595	 1,89017659180426E-02 
596	 0,019329539516892 
597	 2,00149834367354E-02 
598	 2,04865851389972E-02 
599	 2,01054803361614E-02 
600	 1,95346901311879E-02 
601	 1,90629737728432E-02 
602	 1,88672282806323E-02 
603	 1,90455324445764E-02 
604	 1,95589233864859E-02 
605	 1,90500076264221E-02 
606	 1,81245205005316E-02 
607	 1,89812207573189E-02 
608	 1,90721886913933E-02 
609	 1,79079007388409E-02 
610	 0,018611442735531 
611	 1,97391133359745E-02 
612	 1,92247877529815E-02 
613	 1,83460054163207E-02 
614	 1,76009277943737E-02 
615	 1,74983250907167E-02 
616	 1,76527886919844E-02 
617	 1,78155086761212E-02 
618	 1,82254239645803E-02 
619	 1,85927160053195E-02 
620	 1,82959960847566E-02 
621	 0,0181266904169 
622	 1,82636995140942E-02 
623	 1,82213049961799E-02 
624	 1,79337309839425E-02 
625	 1,73963705357838E-02 
626	 1,74901713007212E-02 
627	 1,80309361785701E-02 
628	 1,78832521939729E-02 
629	 1,77534225744227E-02 
630	 1,80228263957972E-02 
631	 1,87730504342582E-02 
632	 1,93559092837851E-02 
633	 1,87186478876021E-02 
634	 1,82430055416012E-02 
635	 1,84341764044583E-02 
636	 1,95144402412116E-02 
637	 2,03410690126694E-02 
638	 2,00102538511199E-02 
639	 1,99787574515008E-02 
640	 2,03267739978095E-02 
641	 2,05283381156961E-02 
642	 2,08180054553734E-02 
643	 2,11605789387908E-02 
644	 2,08217074246345E-02 
645	 2,05620607265545E-02 
646	 2,14361456776112E-02 
647	 2,18612861013817E-02 
648	 2,15577906047186E-02 
649	 2,09428841766319E-02 
650	 2,09609817787724E-02 
651	 0,022069065583285 
652	 2,22436465775597E-02 
653	 2,15501419231035E-02 
654	 2,06729656970997E-02 
655	 2,05760555550023E-02 
656	 2,12266165112982E-02 
657	 2,04159748652584E-02 
658	 0,019562182638382 
659	 2,01975852448775E-02 
660	 2,02176830834471E-02 
661	 1,94822115592878E-02 
662	 1,88556723561004E-02 
663	 1,86209631759458E-02 
664	 1,88502027835779E-02 
665	 1,88244632015522E-02 
666	 1,82788088473953E-02 
667	 1,68899999481692E-02 
668	 1,66605224110566E-02 
669	 1,77166473536101E-02 
670	 1,80948504579616E-02 
671	 1,80026125172664E-02 
672	 1,76874974210447E-02 
673	 1,77330749300323E-02 
674	 1,78272401815034E-02 
675	 1,67661206259932E-02 
676	 1,65343655647513E-02 
677	 1,75437396435709E-02 
678	 0,017571994980463 
679	 1,71991625531184E-02 
680	 1,73262072570117E-02 
681	 1,73834239960166E-02 
682	 1,74196296070674E-02 
683	 1,80608560465644E-02 
684	 1,82826337867721E-02 
685	 1,76426322738405E-02 
686	 1,77945341151356E-02 
687	 1,85616792224294E-02 
688	 1,92407613097807E-02 
689	 1,97860110801853E-02 
690	 2,01990751235914E-02 
691	 2,06537197315686E-02 
692	 2,13819332031547E-02 
693	 2,25903873807132E-02 
694	 2,42793906898843E-02 
695	 2,63120180844928E-02 
696	 2,83734651992712E-02 
697	 3,06019638919305E-02 
698	 3,30878207070353E-02 
699	 3,59988850342247E-02 
700	 3,93634500878295E-02 
701	 4,31905417543687E-02 
702	 4,70251879478551E-02 
703	 5,07249838668266E-02 
704	 5,43600864755274E-02 
705	 5,79263414660854E-02 
706	 6,14750780574967E-02 
707	 6,54242375894825E-02 
708	 6,94740509980941E-02 
709	 7,30034727198292E-02 
710	 7,61531283125635E-02 
711	 7,90352165599583E-02 
712	 8,20545642295778E-02 
713	 8,48130996991712E-02 
714	 8,69708190983983E-02 
715	 8,95772110752403E-02 
716	 9,23838262806344E-02 
717	 0,094180562066232 
718	 9,60133235781818E-02 
719	 9,81695246009145E-02 
720	 9,96238608789175E-02 
721	 0,10074228666602 
722	 0,102104607566591 
723	 0,103619438716242 
724	 0,105219424476351 
725	 0,106813362195586 
726	 0,10790062711236 
727	 0,108285958616758 
728	 0,109121607350996 
729	 0,110136185141362 
730	 0,110521618633592 
731	 0,111107485805442 
732	 0,111977202134557 
733	 0,11236017917228 
734	 0,112671825429574 
735	 0,1132761397991 
736	 0,113741167227711 
737	 0,114088957354763 
738	 0,114577498709224 
739	 0,114985535102476 
740	 0,115288115439749 
741	 0,115888532189953 
742	 0,116293954783772 
743	 0,115928283192827 
744	 0,116049061443672 
745	 0,116626257888519 
746	 0,116633269614275 
747	 0,116497377474696 
748	 0,116484102349896 
749	 0,116782680450472 
750	 0,117220201249727 
751	 0,117490659004982 
752	 0,117868082164697 
753	 0,118283656111492 
754	 0,118267831583066 
755	 0,118050779778025 
756	 0,11785421268573 
757	 0,117978425759708 
758	 0,118377670698902 
759	 0,118910125518584 
760	 0,11897560247333 
761	 0,118549468537321 
762	 0,118613690566423 
763	 0,118773516988566 
764	 0,118633968394365 
765	 0,118676424279783 
766	 0,118921704307095 
767	 0,119232833981126 
768	 0,119322989636696 
769	 0,119168793500132 
770	 0,119432927916609 
771	 0,119792771935475 
772	 0,119807915562705 
773	 0,119772176292081 
774	 0,119804970812716 
775	 0,120044396513237 
776	 0,120380990384206 
777	 0,120676602809398 
778	 0,120448043643325 
779	 0,120099445785311 
780	 0,120285626708483 
781	 0,12066313148437 
782	 0,120988170553667 
783	 0,12072849691646 
784	 0,120518492194758 
785	 0,120766171031544 
786	 0,121078153278546 
787	 0,121345798028075 
788	 0,121492183012955 
789	 0,121496008748776 
790	 0,121399590980586 
791	 0,121417105715325 
792	 0,121361872266081 
793	 0,121106454722846 
794	 0,120951997983751 
795	 0,120987833844893 
796	 0,121286605747832 
797	 0,121627488196897 
798	 0,121875306743448 
799	 0,121895546127226 
800	 0,121773311502813 
801	 0,121635482436353 
802	 0,122011229416506 
803	 0,122628464127148 
804	 0,122559743818923 
805	 0,122317303828323 
806	 0,122187327501481 
807	 0,122676974501407 
808	 0,123107981559685 
809	 0,122767463786398 
810	 0,122939201845435 
811	 0,123492155403887 
812	 0,123302170312053 
813	 0,123069973867826 
814	 0,123083979023539 
815	 0,123201086589249 
816	 0,123318357532196 
817	 0,123333822447083 
818	 0,123681231830684 
819	 0,124167304305885 
820	 0,123836926572315 
821	 0,124037713807323 
822	 0,125095387824915 
823	 0,124636440224132 
824	 0,123855757262985 
825	 0,124554518269794 
826	 0,12511731246963 
827	 0,125163783908792 
828	 0,12472111398522 
829	 0,124501928732456 
830	 0,124807188661747 
831	 0,124680584335266 
832	 0,124758722560224 
833	 0,12601860342537 
834	 0,126084788521625 
835	 0,125041384027052 
836	 0,125188664927691 
837	 0,125611553684406 
838	 0,125798820913058 
839	 0,125703430840009 
840	 0,125674542802907 
841	 0,126212122708068 
842	 0,126191007162068 
843	 0,125731223552046 
844	 0,12626811847088 
845	 0,126551196634883 
846	 0,126063814507084 
847	 0,126372320099277 
848	 0,126862937011449 
849	 0,126446735484427 
850	 0,126275379330524 
851	 0,126547067680164 
852	 0,126981232803262 
853	 0,127042061818773 
854	 0,126553694862835 
855	 0,126548072689203 
856	 0,126808852495821 
857	 0,126875216936738 
858	 0,127069428007823 
859	 0,127325097035418 
860	 0,127173573152189 
861	 0,127264238513813 
862	 0,127818786203231 
863	 0,127877154082505 
864	 0,127827929336727 
865	 0,128290419343676 
866	 0,128334379393944 
867	 0,128021764766147 
868	 0,128224612839291 
869	 0,128424718956193 
870	 0,128368240492244 
871	 0,128088015636019 
872	 0,127799536933089 
873	 0,12775829553046 
874	 0,127929364942265 
875	 0,128301083264087 
876	 0,128932427633752 
877	 0,129234771110204 
878	 0,129017820303117 
879	 0,128807440444971 
880	 0,128911278820245 
881	 0,129540968264512 
882	 0,12921539273047 
883	 0,128569984787285 
884	 0,130238483830154 
885	 0,131037827858718 
886	 0,130220115570267 
887	 0,130442546228558 
888	 0,130759449913509 
889	 0,130244779783354 
890	 0,130462426051595 
891	 0,131090142455466 
892	 0,13080463921061 
893	 0,130660587721544 
894	 0,13086884941395 
895	 0,130824072316573 
896	 0,130635868416709 
897	 0,130450892295681 
898	 0,130656132318806 
899	 0,131027800160978 
900	 0,131077767650665 
901	 0,130793951493062 
902	 0,130476433144212 
903	 0,131333910290652 
904	 0,131729391662017 
905	 0,130888671835592 
906	 0,131294106816938 
907	 0,132072286746616 
908	 0,131582019954664 
909	 0,13152636538248 
910	 0,132015680855426 
911	 0,132046434097749 
912	 0,132103582110247 
913	 0,132400042162262 
914	 0,132884877889981 
915	 0,133105335272671 
916	 0,132611118024589 
917	 0,132172987090894 
918	 0,132035660400935 
919	 0,132396492650415 
920	 0,132534551771629 
921	 0,132274085890819 
922	 0,132215660441066 
923	 0,132122957793286 
924	 0,131815880645898 
925	 0,131675103342709 
926	 0,131802368907551 
927	 0,132293827055526 
928	 0,132156904716625 
929	 0,131271440791662 
930	 0,130183766310164 
931	 0,130152830144698 
932	 0,131597921485696 
933	 0,131933427587714 
934	 0,131519211161646 
935	 0,131227753090237 
936	 0,131266188364594 
937	 0,131509770172675 
938	 0,131409422146993 
939	 0,131130606029748 
940	 0,130749921593902 
941	 0,130270655199234 
942	 0,130249749493303 
943	 0,131015232646208 
944	 0,130787021263198 
945	 0,129823539917406 
946	 0,129182095740604 
947	 0,128458175879361 
948	 0,127876158074436 
949	 0,128604329818768 
950	 0,128741028545263 
951	 0,127445328898139 
952	 0,126985366425068 
953	 0,127022795613976 
954	 0,126854767887579 
955	 0,126591442972467 
956	 0,126202124332944 
957	 0,125579214355445 
958	 0,125168512204965 
959	 0,125026231887617 
960	 0,124518992246848 
961	 0,124301102597218 
962	 0,124819588585787 
963	 0,125414127902644 
964	 0,125679900823007 
965	 0,125206664229546 
966	 0,123488938395213 
967	 0,121577171942024 
968	 0,123040065730547 
969	 0,124085476477644 
970	 0,123235328932818 
971	 0,12208163143959 
972	 0,121653581504429 
973	 0,122812964630903 
974	 0,12577731228503 
975	 0,12788979316352 
976	 0,124574840610369 
977	 0,122746327880379 
978	 0,12380524192439 
979	 0,125228171241041 
980	 0,126281369043953 
981	 0,126600382420956 
982	 0,127188212123497 
983	 0,12761015829646 
984	 0,127291785645478 
985	 0,125222941356556 
986	 0,123499328035923 
987	 0,126388468718014 
988	 0,128836209670936 
989	 0,12923279970455 
990	 0,127776652479895 
991	 0,126335754241096 
992	 0,126248134529921 
993	 0,128635873947883 
994	 0,130125275036473 
995	 0,127499793723209 
996	 0,126320139874778 
997	 0,127487790914221 
998	 0,130707722304133 
999	 0,131620287389056 
1000	 0,129962801154954 
1001	 0,129929053839644 
1002	 0,131016812887822 
1003	 0,132515079798434 
1004	 0,131604527586765 
1005	 0,130354768414028 
1006	 0,130896360161526 
1007	 0,131567948919849 
1008	 0,1313690853655 
1009	 0,129029934307664 
1010	 0,12972002168345 
1011	 0,132803888380572 
1012	 0,131135950317047 
1013	 0,130370088782141 
1014	 0,132570259666303 
1015	 0,134891977206473 
1016	 0,135843383909835 
1017	 0,13474878406563 
1018	 0,136473959735431 
1019	 0,138202659938218 
1020	 0,134918160462977 
1021	 0,132796771717801 
1022	 0,133551376497127 
1023	 0,137896635821195 
1024	 0,138351450914929 
1025	 0,134336349650899 
1026	 0,13635456841869 
1027	 0,139211758964313 
1028	 0,139398908140929 
1029	 0,138601076224034 
1030	 0,13790230714418 
1031	 0,138409695574567 
1032	 0,139648531955603 
1033	 0,141848089145612 
1034	 0,145738230229287 
1035	 0,145271322468042 
1036	 0,139810206885237 
1037	 0,133148910071299 
1038	 0,130485658487973 
1039	 0,134363546478179 
1040	 0,143766790028576 
1041	 0,147399169109003 
1042	 0,138522941949946 
1043	 0,141916276049105 
1044	 0,15019421251033 
1045	 0,148698298653336 
1046	 0,138765369881136 
1047	 0,130161535710935 
1048	 0,145851306307841 
1049	 0,15427693383857 
1050	 0,148487280754699 
1051	 0,140178844598463 
1052	 0,138086851636307 
1053	 0,14426391111163 
1054	 0,142339147377628 
1055	 0,138997070044898 
1056	 0,140617074461291 
1057	 0,140737153083594 
1058	 0,142897107851196 
1059	 0,152223195282015 
1060	 0,150778673287898 
1061	 0,142265557235175 
1062	 0,144797425213902 
1063	 0,146902841718279 
1064	 0,147407040099233 
1065	 0,154944342527552 
1066	 0,156084469369991 
1067	 0,146909285959232 
1068	 0,141537481518395 
1069	 0,141079398112008 
1070	 0,144572786287489 
1071	 0,145793357544484 
1072	 0,136889194200931 
1073	 0,114334727227775 
1074	 0,128846658420481 
1075	 0,159265108016813 
