Wavelength	PENFOUL00573.asd
325	 0,137623989657964 
326	 0,288307199237167 
327	 0,374068795423073 
328	 0,299147518418295 
329	 0,398938089592247 
330	 0,461355621853763 
331	 0,342991377996383 
332	 0,29392571367846 
333	 0,277523438754033 
334	 0,251511593842169 
335	 0,282110287579059 
336	 0,35036076419685 
337	 0,301387343956257 
338	 0,231391979131696 
339	 0,244463410661201 
340	 0,282608140716949 
341	 0,303427557762119 
342	 0,236906020817456 
343	 0,179023856228835 
344	 0,169349183226865 
345	 0,221852526534587 
346	 0,256964908458142 
347	 0,210177182596216 
348	 0,23317666797467 
349	 0,29155045635919 
350	 0,238718070823156 
351	 0,193378834513365 
352	 0,19902424100925 
353	 0,229166666666667 
354	 0,248864374752597 
355	 0,234049532089184 
356	 0,232170462310545 
357	 0,246743829543199 
358	 0,257763550162363 
359	 0,254887272959937 
360	 0,23738419827134 
361	 0,230639356992014 
362	 0,237524403925567 
363	 0,256543764734194 
364	 0,241092518461424 
365	 0,201764577399618 
366	 0,217147002979269 
367	 0,247938478071336 
368	 0,26429652170914 
369	 0,236032130499259 
370	 0,201171213915038 
371	 0,2351392475637 
372	 0,255152880748171 
373	 0,250219588843466 
374	 0,285088724711731 
375	 0,293195989431432 
376	 0,236246155153868 
377	 0,235223890058399 
378	 0,272660618983039 
379	 0,269508608401102 
380	 0,267446616964883 
381	 0,274690104792656 
382	 0,270009175121923 
383	 0,264099449206244 
384	 0,266650140105222 
385	 0,265041135641768 
386	 0,257915735727918 
387	 0,243726184005093 
388	 0,250991030121685 
389	 0,282188663347401 
390	 0,290496295491771 
391	 0,280726644883524 
392	 0,263468990871731 
393	 0,250372551842989 
394	 0,247667130002398 
395	 0,264582362938931 
396	 0,277049656465447 
397	 0,272833294018739 
398	 0,266071235419097 
399	 0,261947933003066 
400	 0,265122766652515 
401	 0,267872498282814 
402	 0,267722583314283 
403	 0,263215604754395 
404	 0,261261287283201 
405	 0,265572254199585 
406	 0,26847780929006 
407	 0,26876441161271 
408	 0,265757884772643 
409	 0,265755473039538 
410	 0,268810345918377 
411	 0,265639365064252 
412	 0,263041112234396 
413	 0,26726722377511 
414	 0,266898053497399 
415	 0,263701977231705 
416	 0,268297845652106 
417	 0,270126223125138 
418	 0,266426780322624 
419	 0,267970572749361 
420	 0,269798993155896 
421	 0,264738007695447 
422	 0,264829630779083 
423	 0,27006257368367 
424	 0,270669885134105 
425	 0,269944661037942 
426	 0,26974804182445 
427	 0,267870414245021 
428	 0,265870977160395 
429	 0,266928805546429 
430	 0,267525459082394 
431	 0,266938925862015 
432	 0,266557854059647 
433	 0,268034114198236 
434	 0,27234639865837 
435	 0,272468460794401 
436	 0,269924856867646 
437	 0,271974386782417 
438	 0,274312106703892 
439	 0,275209037075683 
440	 0,274998691701915 
441	 0,274786377803754 
442	 0,275918458784326 
443	 0,275810089381317 
444	 0,274048492173423 
445	 0,270776019987956 
446	 0,27058445361399 
447	 0,275497336135072 
448	 0,277148983636681 
449	 0,276095428069059 
450	 0,275434469086064 
451	 0,27673120115107 
452	 0,279947256573414 
453	 0,282218235435798 
454	 0,282715797980807 
455	 0,280933284768149 
456	 0,278508200542234 
457	 0,27665517493223 
458	 0,277320906454258 
459	 0,278722569438643 
460	 0,279877384722374 
461	 0,280029416599455 
462	 0,280718491847842 
463	 0,284082583921343 
464	 0,284306735695658 
465	 0,281836550706484 
466	 0,283931702727548 
467	 0,284958940263721 
468	 0,28168368680081 
469	 0,279971597936474 
470	 0,280544236771789 
471	 0,2832116972693 
472	 0,284645156337101 
473	 0,284161633546171 
474	 0,285003674522739 
475	 0,285546724775059 
476	 0,284176845835192 
477	 0,284568695968481 
478	 0,286058806677356 
479	 0,284591939035469 
480	 0,283514675662513 
481	 0,284284893094911 
482	 0,285560100357525 
483	 0,286208579584474 
484	 0,284848755903715 
485	 0,283734454073543 
486	 0,283543820196268 
487	 0,283850904551168 
488	 0,285290315169368 
489	 0,287960676781887 
490	 0,287749097009149 
491	 0,285619062114999 
492	 0,285316144541187 
493	 0,284594231298988 
494	 0,28324893386634 
495	 0,283924993974885 
496	 0,28496436394719 
497	 0,284345379326708 
498	 0,284977291180896 
499	 0,286656560747527 
500	 0,28678624614456 
501	 0,286810571012912 
502	 0,28737843224876 
503	 0,286703223934394 
504	 0,28597265754746 
505	 0,287710809985052 
506	 0,288236393635284 
507	 0,28723517419263 
508	 0,288493398849497 
509	 0,289890967010914 
510	 0,289554526910925 
511	 0,29062157165878 
512	 0,292634974417478 
513	 0,292767630012298 
514	 0,293729471625047 
515	 0,296123690332511 
516	 0,296010599682412 
517	 0,294908511808593 
518	 0,295422270113729 
519	 0,296216488792061 
520	 0,296797785479215 
521	 0,296595909386089 
522	 0,296266852160925 
523	 0,296310319353239 
524	 0,296549504795114 
525	 0,296905502458285 
526	 0,297347027136128 
527	 0,297315514046071 
528	 0,296848504248452 
529	 0,297396434638508 
530	 0,297857432883871 
531	 0,296892957131181 
532	 0,29584008160893 
533	 0,295436547010668 
534	 0,296962727984285 
535	 0,298203171773259 
536	 0,297898783062003 
537	 0,29756875645737 
538	 0,297511179482686 
539	 0,297890709362957 
540	 0,298118025702384 
541	 0,298018461806348 
542	 0,297742687780087 
543	 0,297655736957944 
544	 0,298072765151304 
545	 0,298254511482168 
546	 0,298280892378328 
547	 0,298905960336653 
548	 0,299148688967023 
549	 0,298731738770984 
550	 0,299319084993446 
551	 0,30025686386902 
552	 0,300261716640804 
553	 0,300227072669873 
554	 0,300389070976002 
555	 0,300726583152209 
556	 0,30080684606114 
557	 0,300295934848488 
558	 0,299706719920391 
559	 0,299086226210074 
560	 0,298265212126507 
561	 0,297399453548182 
562	 0,296690242534286 
563	 0,296794979895491 
564	 0,297116359266778 
565	 0,296807128102471 
566	 0,296462693163756 
567	 0,29641315075218 
568	 0,29724775145305 
569	 0,29812077817293 
570	 0,298492063885128 
571	 0,299142302103698 
572	 0,300380678638779 
573	 0,302768286028013 
574	 0,304236991274621 
575	 0,304458276662386 
576	 0,306038209571624 
577	 0,308269559108241 
578	 0,310157760908115 
579	 0,312322764765568 
580	 0,314517456030404 
581	 0,315656174605593 
582	 0,316724959271951 
583	 0,31822104714738 
584	 0,319194778680345 
585	 0,319950853086567 
586	 0,321232151297957 
587	 0,322486138821623 
588	 0,323471240745531 
589	 0,3238788118743 
590	 0,324417091762006 
591	 0,325707456656843 
592	 0,326700469702938 
593	 0,327319122808972 
594	 0,328018339260617 
595	 0,328308422672614 
596	 0,328127762617151 
597	 0,328638426213053 
598	 0,329280747025665 
599	 0,329038940728101 
600	 0,328736050578718 
601	 0,328505269117418 
602	 0,327860322200726 
603	 0,327496074444508 
604	 0,3278467106569 
605	 0,327255783064412 
606	 0,325995535741075 
607	 0,325494113158458 
608	 0,324579121170585 
609	 0,323192335234185 
610	 0,323560895295414 
611	 0,323961721334793 
612	 0,322095719620764 
613	 0,320489367049746 
614	 0,319732568315102 
615	 0,319510260362914 
616	 0,319398515015092 
617	 0,31912268848612 
618	 0,319036668140939 
619	 0,319021227363652 
620	 0,318779742735846 
621	 0,31835401351142 
622	 0,317899172987273 
623	 0,318127927061799 
624	 0,318221367998649 
625	 0,317366605343981 
626	 0,317555213339381 
627	 0,318642755620339 
628	 0,318908883739383 
629	 0,31926288320411 
630	 0,320053679167582 
631	 0,320336412240125 
632	 0,320644894921729 
633	 0,322032246920363 
634	 0,322956549972858 
635	 0,323275849498991 
636	 0,324414380874715 
637	 0,325691867698211 
638	 0,326515813041552 
639	 0,327375848639068 
640	 0,328307656853734 
641	 0,329157244104964 
642	 0,330189970580328 
643	 0,331359005900568 
644	 0,331778174589001 
645	 0,331920809564164 
646	 0,332506538222699 
647	 0,332523993205361 
648	 0,331874673790244 
649	 0,331060680162347 
650	 0,330483739585532 
651	 0,330282739425451 
652	 0,329005285342005 
653	 0,327152461462871 
654	 0,326185961983432 
655	 0,325120847513908 
656	 0,323614797469333 
657	 0,321606001004708 
658	 0,319577898928656 
659	 0,318012398795025 
660	 0,316101086002172 
661	 0,31382419404556 
662	 0,311582641513264 
663	 0,309646940139045 
664	 0,308143000511756 
665	 0,306785892419997 
666	 0,305400236055605 
667	 0,303751592581591 
668	 0,302605595060188 
669	 0,302045795253986 
670	 0,301408827752297 
671	 0,30094797766135 
672	 0,300817916911463 
673	 0,300252043189195 
674	 0,29944276279475 
675	 0,299068071337781 
676	 0,299334405228866 
677	 0,300051735593496 
678	 0,299603026554819 
679	 0,298932286757464 
680	 0,299302929099223 
681	 0,29991356085651 
682	 0,300667785364087 
683	 0,301840549078743 
684	 0,303095342399583 
685	 0,304350164999059 
686	 0,306530712460948 
687	 0,309498186005262 
688	 0,312756585786396 
689	 0,316685774137167 
690	 0,321393812754945 
691	 0,326788023259761 
692	 0,332903914904677 
693	 0,339774935985677 
694	 0,34728957660367 
695	 0,355489687489669 
696	 0,364614409193864 
697	 0,374314869366117 
698	 0,384355629387756 
699	 0,394571648066547 
700	 0,405034367005604 
701	 0,415870007876527 
702	 0,426209161537586 
703	 0,435892591206055 
704	 0,445306458001873 
705	 0,454570651304003 
706	 0,463695634589147 
707	 0,471984074590329 
708	 0,479654800024248 
709	 0,487346255074698 
710	 0,494242852691622 
711	 0,5002644931078 
712	 0,506229495927329 
713	 0,512024241406348 
714	 0,517442261141264 
715	 0,521761903327871 
716	 0,525323394364712 
717	 0,529349700490107 
718	 0,533161398886815 
719	 0,536464143721459 
720	 0,539171186674884 
721	 0,541821918308326 
722	 0,54510378451813 
723	 0,547800198633157 
724	 0,54979230374955 
725	 0,55181154864798 
726	 0,55345082528688 
727	 0,554605787952838 
728	 0,556482581919594 
729	 0,558545215267013 
730	 0,55955202388006 
731	 0,560433106287596 
732	 0,561432584830559 
733	 0,562297605913243 
734	 0,563196557905415 
735	 0,56424030837661 
736	 0,564858156389102 
737	 0,565204566756531 
738	 0,56589295728413 
739	 0,566733775330488 
740	 0,567576683436395 
741	 0,567992020283565 
742	 0,568159521524103 
743	 0,568336619451049 
744	 0,568570659925957 
745	 0,568967320413499 
746	 0,569861057226233 
747	 0,570280809430339 
748	 0,569854273134513 
749	 0,570023014947171 
750	 0,57058366385064 
751	 0,570952678709036 
752	 0,57120574474066 
753	 0,57134854353017 
754	 0,571399046662301 
755	 0,571494371506716 
756	 0,571722475448912 
757	 0,571892570849439 
758	 0,572031149652807 
759	 0,572262966613022 
760	 0,572435674002532 
761	 0,57253089318337 
762	 0,572751771431659 
763	 0,572819729567952 
764	 0,572514830125705 
765	 0,57269915927831 
766	 0,573259024314306 
767	 0,573488904962323 
768	 0,573511972877876 
769	 0,573435887436363 
770	 0,573680015498239 
771	 0,574079304614029 
772	 0,574383912532862 
773	 0,574150606464169 
774	 0,573636527392181 
775	 0,573940539457618 
776	 0,57427258805513 
777	 0,574243597844699 
778	 0,574217013699289 
779	 0,574188621767994 
780	 0,574092680398892 
781	 0,574183711941412 
782	 0,574467684705175 
783	 0,574719532113258 
784	 0,574906784944099 
785	 0,574980479935657 
786	 0,574729701209564 
787	 0,574477528558989 
788	 0,574850287791337 
789	 0,575030141740674 
790	 0,574850496929564 
791	 0,57472493096234 
792	 0,574711950496193 
793	 0,574839617858026 
794	 0,574962322764073 
795	 0,575021478244283 
796	 0,574930612348381 
797	 0,575052785844353 
798	 0,575406295377869 
799	 0,575493170725326 
800	 0,575267942758524 
801	 0,574769686783376 
802	 0,574772515234194 
803	 0,575171508878656 
804	 0,575301939241181 
805	 0,575391969341008 
806	 0,575526883804036 
807	 0,575831673622843 
808	 0,576086175562778 
809	 0,576055932740027 
810	 0,575981163829283 
811	 0,57592769595593 
812	 0,575909540566056 
813	 0,575919779068555 
814	 0,575985072735714 
815	 0,576310640196461 
816	 0,576504864109235 
817	 0,576111710154104 
818	 0,575885618605224 
819	 0,575963253219877 
820	 0,57616678955311 
821	 0,576483512431177 
822	 0,576813120203757 
823	 0,576696504012812 
824	 0,57645285004503 
825	 0,576550181330677 
826	 0,577382901945838 
827	 0,57841766450014 
828	 0,577634211502421 
829	 0,577142077144811 
830	 0,577815910242457 
831	 0,577442927986054 
832	 0,576917097537583 
833	 0,577741631527264 
834	 0,577852888859915 
835	 0,577213520241381 
836	 0,577422207681525 
837	 0,57785848771582 
838	 0,578098475039563 
839	 0,577607276694776 
840	 0,577070540892035 
841	 0,577517876698007 
842	 0,577901930535664 
843	 0,577940596802519 
844	 0,577618103298962 
845	 0,577442105205375 
846	 0,577684561626505 
847	 0,578053659062471 
848	 0,578248125893093 
849	 0,577913698875293 
850	 0,577793668405663 
851	 0,577987098059695 
852	 0,578234741905428 
853	 0,577885525621416 
854	 0,57686101351191 
855	 0,577204840625711 
856	 0,578155510185509 
857	 0,57836181997564 
858	 0,578205135580837 
859	 0,577926404052629 
860	 0,578170244421448 
861	 0,577805462723252 
862	 0,57660403656317 
863	 0,577070599770776 
864	 0,578331580178681 
865	 0,578902596146027 
866	 0,578862896658884 
867	 0,57859333212018 
868	 0,579418746421851 
869	 0,579584995585946 
870	 0,578530448270892 
871	 0,578291014068766 
872	 0,578624039787372 
873	 0,578983582468603 
874	 0,579124645434867 
875	 0,579016015831122 
876	 0,578718136748733 
877	 0,579004105768895 
878	 0,57988549703218 
879	 0,579356359016991 
880	 0,578623822283926 
881	 0,579083333136351 
882	 0,578798872062597 
883	 0,578104266577791 
884	 0,578897691336142 
885	 0,579673109382965 
886	 0,57986580752102 
887	 0,57966827739485 
888	 0,579197913046873 
889	 0,5786693923195 
890	 0,579464482322879 
891	 0,580674347652793 
892	 0,579774876336297 
893	 0,578845052952963 
894	 0,578641184678834 
895	 0,579265270117408 
896	 0,57980571557489 
897	 0,57956059974197 
898	 0,579052809326838 
899	 0,578992742404768 
900	 0,580509172009119 
901	 0,581093318373149 
902	 0,580429059039713 
903	 0,580391573277103 
904	 0,580389882066532 
905	 0,580048989505403 
906	 0,579404427984818 
907	 0,578800500788579 
908	 0,578699059946957 
909	 0,579353246496711 
910	 0,580300579160735 
911	 0,579893969658748 
912	 0,579741484400366 
913	 0,580438239133266 
914	 0,5806061382156 
915	 0,580669489361835 
916	 0,581157452352286 
917	 0,580537486890757 
918	 0,579421502598059 
919	 0,580182343146937 
920	 0,580396278521642 
921	 0,579631615969124 
922	 0,579993638676845 
923	 0,580939875153346 
924	 0,58178166318673 
925	 0,581217165143261 
926	 0,57985339428768 
927	 0,579156720111641 
928	 0,578776544327526 
929	 0,578678991731172 
930	 0,578982015222024 
931	 0,579026438340901 
932	 0,578544358891884 
933	 0,578796456691702 
934	 0,57865114574298 
935	 0,576623830884643 
936	 0,576633745440165 
937	 0,578371223463731 
938	 0,578428444687537 
939	 0,578246227177918 
940	 0,578067900299987 
941	 0,576434632327209 
942	 0,575699671520796 
943	 0,577600173293392 
944	 0,577009894533639 
945	 0,574992786801946 
946	 0,575110365335749 
947	 0,575418651955882 
948	 0,575217082967064 
949	 0,573902031811256 
950	 0,572798367072023 
951	 0,572609716717765 
952	 0,572293921233581 
953	 0,572157918763279 
954	 0,572627062728034 
955	 0,572285053784437 
956	 0,571027476601724 
957	 0,569243467299677 
958	 0,568570343013464 
959	 0,569306813728939 
960	 0,569930343831371 
961	 0,569043053624828 
962	 0,566256353432748 
963	 0,56740992942198 
964	 0,569627782754614 
965	 0,567378341499472 
966	 0,565250128722108 
967	 0,564815572682166 
968	 0,567471972992347 
969	 0,568489198052196 
970	 0,566398549444936 
971	 0,565671741404375 
972	 0,565853450691747 
973	 0,566247718058805 
974	 0,566897210510865 
975	 0,567478770736774 
976	 0,567561774909425 
977	 0,565936660785113 
978	 0,563977957417623 
979	 0,567612786254207 
980	 0,569975953311499 
981	 0,5681616670345 
982	 0,567349708792213 
983	 0,56717777696545 
984	 0,566883759255797 
985	 0,566600886892391 
986	 0,566577697978794 
987	 0,567225733418915 
988	 0,568897261359866 
989	 0,57033447650431 
990	 0,566742780639402 
991	 0,564160355351766 
992	 0,565799965771494 
993	 0,569782151532066 
994	 0,572658468178466 
995	 0,571242253293611 
996	 0,569388122162708 
997	 0,568938503633184 
998	 0,571896987892793 
999	 0,573419535825519 
1000	 0,573094327214058 
1001	 0,575237064305061 
1002	 0,576400287568326 
1003	 0,575630123008242 
1004	 0,578297793612086 
1005	 0,580036763062158 
1006	 0,576727059089397 
1007	 0,574883509705173 
1008	 0,574838145323787 
1009	 0,574992863416408 
1010	 0,575975943411394 
1011	 0,577247144987614 
1012	 0,576920504257451 
1013	 0,576002781660563 
1014	 0,575540771271381 
1015	 0,578365845836556 
1016	 0,580602012568238 
1017	 0,579198314633936 
1018	 0,578498455034036 
1019	 0,578814340226722 
1020	 0,579574534928016 
1021	 0,579227794598935 
1022	 0,578052110613719 
1023	 0,57779290259551 
1024	 0,57938992917825 
1025	 0,582079112240577 
1026	 0,580490160053256 
1027	 0,580000463245719 
1028	 0,583263577150338 
1029	 0,582434165887924 
1030	 0,580058678254578 
1031	 0,580062545748225 
1032	 0,58054261894165 
1033	 0,581752071731921 
1034	 0,584699094584774 
1035	 0,587935730341708 
1036	 0,589749478327321 
1037	 0,585857571310491 
1038	 0,581639649920838 
1039	 0,580361782238713 
1040	 0,583657233594126 
1041	 0,585283880118882 
1042	 0,581541242735097 
1043	 0,587006701884886 
1044	 0,596285712701061 
1045	 0,599209130683265 
1046	 0,591266219662161 
1047	 0,579932372811532 
1048	 0,585912146085802 
1049	 0,590659524785755 
1050	 0,589520805724965 
1051	 0,586623157103953 
1052	 0,585926654017945 
1053	 0,588658634062117 
1054	 0,589668975624486 
1055	 0,586932990451297 
1056	 0,58042568424089 
1057	 0,58223139158204 
1058	 0,588756438002474 
1059	 0,592748056343857 
1060	 0,594897599325644 
1061	 0,59484993010882 
1062	 0,591988792297428 
1063	 0,592643990328884 
1064	 0,596048523391415 
1065	 0,589870247651452 
1066	 0,596461094250777 
1067	 0,61582823854082 
1068	 0,592593724363751 
1069	 0,569135866522979 
1070	 0,575465986544992 
1071	 0,582472865328238 
1072	 0,583980692862333 
1073	 0,577602510450208 
1074	 0,579337491192932 
1075	 0,586033135879486 
