Wavelength	PENFOUL00157.asd
325	 0,358020514927086 
326	 0,382913068813901 
327	 0,412155947074223 
328	 0,407395473244592 
329	 0,391228284963142 
330	 0,366007503314108 
331	 0,350810089350816 
332	 0,348146777869178 
333	 0,361500532416356 
334	 0,415728505631169 
335	 0,424608637159738 
336	 0,371533187909006 
337	 0,28042640806325 
338	 0,2481371720516 
339	 0,34934809757157 
340	 0,416492857689865 
341	 0,427169203055749 
342	 0,370460520937445 
343	 0,320845195100425 
344	 0,304671105024254 
345	 0,300596851563042 
346	 0,285849677755037 
347	 0,246933865197708 
348	 0,266592710389382 
349	 0,311443305761135 
350	 0,265991522370115 
351	 0,233724237347567 
352	 0,253471020190554 
353	 0,302678677666283 
354	 0,326575348604462 
355	 0,286624253781364 
356	 0,267387754987734 
357	 0,275409020226305 
358	 0,271515466989644 
359	 0,271816097171427 
360	 0,280288480804531 
361	 0,272554811522705 
362	 0,270409176946752 
363	 0,307682280641553 
364	 0,324628095957243 
365	 0,31788429370333 
366	 0,322229964192353 
367	 0,312508813771821 
368	 0,280972943738632 
369	 0,288624814631735 
370	 0,318233975747023 
371	 0,327029959617626 
372	 0,312477104230266 
373	 0,28519312306038 
374	 0,301077124905061 
375	 0,320302019398573 
376	 0,316555343403594 
377	 0,309929626880718 
378	 0,304836192279909 
379	 0,300121242723235 
380	 0,302081674325346 
381	 0,310432001715143 
382	 0,312167285147932 
383	 0,312447443343925 
384	 0,316289112553294 
385	 0,315263092116218 
386	 0,310205507174008 
387	 0,305542423276831 
388	 0,309700767218855 
389	 0,321781951244693 
390	 0,31749220865438 
391	 0,311973086862813 
392	 0,324837130466072 
393	 0,3274787839725 
394	 0,31803530867722 
395	 0,307714021553685 
396	 0,30587050923714 
397	 0,314892122701144 
398	 0,31098553276797 
399	 0,305096357387799 
400	 0,317379994675225 
401	 0,322122249662243 
402	 0,315774882232949 
403	 0,310789946227918 
404	 0,306520180631192 
405	 0,302645334407171 
406	 0,304019834721358 
407	 0,307491459056373 
408	 0,304940903842534 
409	 0,30569990889448 
410	 0,310405534304708 
411	 0,309684502506762 
412	 0,307838414300937 
413	 0,309089979999951 
414	 0,30847820864272 
415	 0,306573333659419 
416	 0,307023320476235 
417	 0,307870126175391 
418	 0,308553523408065 
419	 0,311532889603018 
420	 0,311909657359995 
421	 0,303461266520162 
422	 0,304730925033201 
423	 0,314631174992543 
424	 0,314644334278038 
425	 0,310399138181034 
426	 0,306044565805957 
427	 0,305897552932053 
428	 0,307614510306637 
429	 0,305803433065428 
430	 0,304227304170892 
431	 0,304133750001894 
432	 0,305838734031384 
433	 0,308190781921026 
434	 0,310046157226981 
435	 0,30873150064638 
436	 0,306271399822946 
437	 0,309325123903108 
438	 0,310542607759953 
439	 0,308165413273425 
440	 0,310766984407191 
441	 0,313879488106948 
442	 0,311047374415251 
443	 0,308738894110124 
444	 0,30817017738161 
445	 0,307521156367679 
446	 0,308460273038801 
447	 0,311516252456238 
448	 0,312593004661533 
449	 0,311861454119481 
450	 0,31047315592999 
451	 0,311849284633902 
452	 0,315803884859268 
453	 0,316161084053116 
454	 0,315089105714472 
455	 0,314891180657725 
456	 0,315573959790553 
457	 0,316079895680956 
458	 0,313082473176015 
459	 0,311738385627285 
460	 0,313907876883327 
461	 0,315899222336793 
462	 0,317030970575278 
463	 0,316928471965261 
464	 0,316558065502972 
465	 0,316498249906041 
466	 0,31749742653002 
467	 0,319156035260471 
468	 0,32091603484261 
469	 0,320527170788545 
470	 0,318626889000568 
471	 0,316651820950433 
472	 0,318249929674567 
473	 0,323059599978359 
474	 0,323562588030204 
475	 0,321145440712414 
476	 0,317864352549209 
477	 0,318948203538244 
478	 0,322568999268679 
479	 0,320326567737092 
480	 0,318446861599772 
481	 0,319578636533711 
482	 0,320715356734892 
483	 0,321641227641489 
484	 0,322616508515277 
485	 0,322036054820703 
486	 0,320299264550643 
487	 0,320287553362745 
488	 0,321373024357966 
489	 0,322788275039654 
490	 0,322089350839277 
491	 0,320054850478059 
492	 0,319162641851164 
493	 0,319260198920831 
494	 0,320096710079917 
495	 0,320012713647944 
496	 0,31995277667393 
497	 0,321099338248031 
498	 0,321779773824798 
499	 0,321599561058687 
500	 0,320399054699719 
501	 0,320159112525481 
502	 0,321820155448096 
503	 0,323270451642161 
504	 0,323615479359928 
505	 0,321569248192065 
506	 0,32227172306011 
507	 0,326071050100802 
508	 0,327170479243419 
509	 0,327076692778731 
510	 0,327464150468342 
511	 0,329495635068726 
512	 0,331984770167257 
513	 0,331077337132906 
514	 0,331061556575639 
515	 0,333353063199707 
516	 0,33405309670675 
517	 0,33409294062678 
518	 0,335317582300378 
519	 0,335717062963162 
520	 0,335440989824028 
521	 0,337055276163673 
522	 0,337926691819202 
523	 0,336386653015176 
524	 0,336182290597236 
525	 0,337216982838518 
526	 0,337951359024573 
527	 0,338420386781857 
528	 0,338629799840815 
529	 0,3391718164803 
530	 0,339162851839447 
531	 0,337599501826407 
532	 0,337655579585799 
533	 0,339222799534913 
534	 0,339691691584051 
535	 0,339309162811571 
536	 0,338363390546534 
537	 0,338134469071839 
538	 0,338467479916974 
539	 0,338722070959412 
540	 0,338961104863655 
541	 0,339099336486638 
542	 0,338713661399116 
543	 0,338771356173217 
544	 0,340131899137008 
545	 0,340611140896935 
546	 0,340267198354591 
547	 0,340632190895055 
548	 0,340771419765821 
549	 0,340425045421017 
550	 0,341015894658497 
551	 0,341766834800461 
552	 0,341248045923866 
553	 0,340813875620253 
554	 0,340764226602298 
555	 0,340640045600911 
556	 0,340462164799642 
557	 0,340253575316154 
558	 0,340054496056288 
559	 0,339727383358438 
560	 0,338845404823143 
561	 0,338261526244348 
562	 0,338167265247339 
563	 0,337420055179851 
564	 0,336275996186967 
565	 0,335189249023032 
566	 0,335439562936646 
567	 0,336929689107163 
568	 0,338155734514053 
569	 0,338798547140907 
570	 0,338746072238839 
571	 0,339196979570797 
572	 0,340423908389977 
573	 0,342620242866501 
574	 0,34442722215539 
575	 0,345623645172608 
576	 0,348045305033034 
577	 0,350686862045489 
578	 0,352324811534568 
579	 0,354594443016355 
580	 0,357122323002862 
581	 0,357488717661083 
582	 0,358195606988371 
583	 0,36055777193223 
584	 0,36275973940085 
585	 0,364360554432618 
586	 0,36504738799028 
587	 0,365685184244429 
588	 0,366572459303553 
589	 0,367484290982819 
590	 0,368683531108804 
591	 0,370332530111291 
592	 0,370988569071803 
593	 0,370824700315066 
594	 0,371092945136752 
595	 0,371426194016225 
596	 0,371726420628471 
597	 0,372304464099216 
598	 0,372754486050714 
599	 0,372426789039121 
600	 0,372455203504184 
601	 0,37284432066803 
602	 0,37233583899142 
603	 0,371536023489449 
604	 0,370929138661993 
605	 0,370008425235031 
606	 0,369059889642527 
607	 0,369085355397193 
608	 0,368362414381655 
609	 0,366641536402831 
610	 0,36666051471239 
611	 0,366887188922785 
612	 0,365185932962541 
613	 0,363973186701923 
614	 0,363515514183259 
615	 0,362569474666388 
616	 0,361794858613084 
617	 0,361566932052071 
618	 0,361300993434891 
619	 0,360884761680445 
620	 0,360219263599592 
621	 0,360079662571936 
622	 0,360508003951576 
623	 0,360375551649921 
624	 0,3598892815582 
625	 0,359384864891015 
626	 0,360266525703328 
627	 0,361767340837357 
628	 0,360619141627461 
629	 0,360111502954302 
630	 0,361720856893149 
631	 0,362838425418631 
632	 0,363526141032444 
633	 0,364446217610933 
634	 0,364703814292783 
635	 0,364547305691322 
636	 0,365880196954944 
637	 0,367841118885177 
638	 0,36959003956065 
639	 0,37074008304213 
640	 0,37151122454438 
641	 0,372740527871872 
642	 0,373808277551279 
643	 0,374491642536775 
644	 0,375002549720439 
645	 0,375497037503626 
646	 0,376153041476787 
647	 0,376114532851759 
648	 0,375420752776499 
649	 0,375028624291944 
650	 0,374490412616134 
651	 0,373502788324141 
652	 0,372199717900789 
653	 0,370649651470225 
654	 0,368938267122747 
655	 0,367090269667574 
656	 0,365132148106 
657	 0,363055761322128 
658	 0,360966990958556 
659	 0,358958605763678 
660	 0,356468335708806 
661	 0,353583821419319 
662	 0,350828541068751 
663	 0,34855737602361 
664	 0,346794054470817 
665	 0,344174722294795 
666	 0,34140893409235 
667	 0,339812814770735 
668	 0,338579919840105 
669	 0,337499161359408 
670	 0,336652009024545 
671	 0,335941452688535 
672	 0,335275864711442 
673	 0,334569975471264 
674	 0,333865176482229 
675	 0,333231841314615 
676	 0,333005044277307 
677	 0,333184822462626 
678	 0,332933189195852 
679	 0,332748949343803 
680	 0,333292961711434 
681	 0,333909211006169 
682	 0,334630334985296 
683	 0,336029693435335 
684	 0,337662055609482 
685	 0,339412528386457 
686	 0,342439394001633 
687	 0,346450259523159 
688	 0,350652628437332 
689	 0,355530495855674 
690	 0,361125481024439 
691	 0,36698802752902 
692	 0,373567213845577 
693	 0,381267815567929 
694	 0,389711616754186 
695	 0,398658784901522 
696	 0,407849484661878 
697	 0,417217975179039 
698	 0,426705537376981 
699	 0,436461570463541 
700	 0,446275835475015 
701	 0,455873897975684 
702	 0,465154534903056 
703	 0,473934411886012 
704	 0,481907316342049 
705	 0,489222538878209 
706	 0,496008181474721 
707	 0,502385212883888 
708	 0,508359050997144 
709	 0,513888989503917 
710	 0,518911357561922 
711	 0,523481546188852 
712	 0,527903320309898 
713	 0,532109807217659 
714	 0,535985466264124 
715	 0,539166500344856 
716	 0,541798714061062 
717	 0,544386084376436 
718	 0,546946987326131 
719	 0,549460891577022 
720	 0,551638175495728 
721	 0,553535129650505 
722	 0,555267216243433 
723	 0,556888812235503 
724	 0,558414490369991 
725	 0,559835193137026 
726	 0,56101061968096 
727	 0,561896590169813 
728	 0,562872256420812 
729	 0,563825415161517 
730	 0,564464933889608 
731	 0,564922458344908 
732	 0,565325647611315 
733	 0,565986069728764 
734	 0,566755537291136 
735	 0,567465619948106 
736	 0,567854572137274 
737	 0,568003163233365 
738	 0,568196671215936 
739	 0,568567097644215 
740	 0,569151999794584 
741	 0,569808378989472 
742	 0,570166130479048 
743	 0,569844364340239 
744	 0,569927608171615 
745	 0,570529550517137 
746	 0,571254310957701 
747	 0,571406563304398 
748	 0,570797108172916 
749	 0,571077112181559 
750	 0,571883770588336 
751	 0,572363576009047 
752	 0,572434595302855 
753	 0,572194605808544 
754	 0,572185812122442 
755	 0,572322717432969 
756	 0,57251836074944 
757	 0,572582601523458 
758	 0,572610979789655 
759	 0,572889682971008 
760	 0,573005999375951 
761	 0,572861524544911 
762	 0,572631163774906 
763	 0,572654261217014 
764	 0,573201055233656 
765	 0,573621916949884 
766	 0,573760332015379 
767	 0,573576041706673 
768	 0,573393634428842 
769	 0,573388582897116 
770	 0,573618292115057 
771	 0,573873088890968 
772	 0,573899872107536 
773	 0,573658023634125 
774	 0,573279156119734 
775	 0,573088689801204 
776	 0,57336103148263 
777	 0,574087455589312 
778	 0,574127748555182 
779	 0,573805512858906 
780	 0,573794927088862 
781	 0,573747989421577 
782	 0,573688877740197 
783	 0,574005507720552 
784	 0,574181979604541 
785	 0,57390108677972 
786	 0,573569315798669 
787	 0,573359004061458 
788	 0,573455370627734 
789	 0,573607776235544 
790	 0,573698399532932 
791	 0,573660700775683 
792	 0,57346902220349 
793	 0,573130598669298 
794	 0,572860326620999 
795	 0,572759527553649 
796	 0,572977262731805 
797	 0,57295362784798 
798	 0,572655800325626 
799	 0,572965511940045 
800	 0,573316237955926 
801	 0,573151825558046 
802	 0,572886718226747 
803	 0,572690737515952 
804	 0,572748279835727 
805	 0,573058812100274 
806	 0,573497832408853 
807	 0,573462302156969 
808	 0,573207809257674 
809	 0,573069791064248 
810	 0,573239040131236 
811	 0,573545207161966 
812	 0,57336181241836 
813	 0,573288164882117 
814	 0,573514723600761 
815	 0,573588493293591 
816	 0,573464540556878 
817	 0,573150301999901 
818	 0,572968113985012 
819	 0,573026486532122 
820	 0,573406061107212 
821	 0,573660096937067 
822	 0,573604218572696 
823	 0,573702901901364 
824	 0,573714486168874 
825	 0,573289394305142 
826	 0,573722609151163 
827	 0,574730886987377 
828	 0,574438383066556 
829	 0,573936543573467 
830	 0,573801636768145 
831	 0,573785747529022 
832	 0,573976756085836 
833	 0,574505148163124 
834	 0,574503884641174 
835	 0,574048059220204 
836	 0,574154834297598 
837	 0,574300249002332 
838	 0,574250782261545 
839	 0,574426870899547 
840	 0,574702027023841 
841	 0,574842762818917 
842	 0,574709937345866 
843	 0,574313759009504 
844	 0,573757862122011 
845	 0,573507745053525 
846	 0,57380606507051 
847	 0,574331397208875 
848	 0,574724627626213 
849	 0,574568456589835 
850	 0,57419934216361 
851	 0,573887643921033 
852	 0,574248465666582 
853	 0,574192404477421 
854	 0,573317021042491 
855	 0,573198700049619 
856	 0,57362063848638 
857	 0,574032719845005 
858	 0,57405735387331 
859	 0,573712768359756 
860	 0,573425116316346 
861	 0,573313191443582 
862	 0,573451322751047 
863	 0,573770027165516 
864	 0,574042610453141 
865	 0,574000208996272 
866	 0,573789821662614 
867	 0,573553654470412 
868	 0,573595437911431 
869	 0,573620497153103 
870	 0,57348396380073 
871	 0,57316911500876 
872	 0,573128725224751 
873	 0,573857712121223 
874	 0,574023859187914 
875	 0,573695829119117 
876	 0,574000117764981 
877	 0,574258709862986 
878	 0,574208590216512 
879	 0,573993201695801 
880	 0,573931593664379 
881	 0,574324329648181 
882	 0,574474265455766 
883	 0,574521411261728 
884	 0,575320154589283 
885	 0,575594000348496 
886	 0,575110901923869 
887	 0,575291287432321 
888	 0,575550095315973 
889	 0,575314979030727 
890	 0,575459453065634 
891	 0,575778804283176 
892	 0,575465024818469 
893	 0,575408107581873 
894	 0,57572520709444 
895	 0,575584379392103 
896	 0,575395665247535 
897	 0,575464399178349 
898	 0,575231185288695 
899	 0,575057239557746 
900	 0,57574874336937 
901	 0,575737775924394 
902	 0,575103364318083 
903	 0,576065211050621 
904	 0,57646963607554 
905	 0,575208077215322 
906	 0,57476980459298 
907	 0,57487415628175 
908	 0,574676825426926 
909	 0,574842265342667 
910	 0,575298609713104 
911	 0,575459534828824 
912	 0,575138007478024 
913	 0,57447030474335 
914	 0,574885286614074 
915	 0,575421821600961 
916	 0,574925442389549 
917	 0,574659318097568 
918	 0,574640610500565 
919	 0,574257057789711 
920	 0,57383097754767 
921	 0,573585871127671 
922	 0,573988898580757 
923	 0,57445760539598 
924	 0,574508288565315 
925	 0,574647742306267 
926	 0,574684432279052 
927	 0,574136990397661 
928	 0,573929455837817 
929	 0,57400499514693 
930	 0,572936623873637 
931	 0,572724353314164 
932	 0,574152893276613 
933	 0,57404109757636 
934	 0,573001909506922 
935	 0,572302755596793 
936	 0,57222268345176 
937	 0,572321812086935 
938	 0,570847504527972 
939	 0,570757300589912 
940	 0,572473954597067 
941	 0,571955939563677 
942	 0,570947290957158 
943	 0,571078968153242 
944	 0,570367247549656 
945	 0,569286006378325 
946	 0,569245904563121 
947	 0,569396260750922 
948	 0,569436357365729 
949	 0,569455925772029 
950	 0,568144681383842 
951	 0,565307020160544 
952	 0,56468565826013 
953	 0,565057037884327 
954	 0,564493876691319 
955	 0,564750439347287 
956	 0,565227292919623 
957	 0,563464587523672 
958	 0,562444858771718 
959	 0,562894522946943 
960	 0,563061758878315 
961	 0,562511916781346 
962	 0,561269486847163 
963	 0,562249613821045 
964	 0,563543591402754 
965	 0,561705508829205 
966	 0,561364958471897 
967	 0,562785194957416 
968	 0,563177793862634 
969	 0,562706668564707 
970	 0,561469355538628 
971	 0,559952589669475 
972	 0,558913848941233 
973	 0,559003981905778 
974	 0,560216539808778 
975	 0,561369982474178 
976	 0,560454584316864 
977	 0,560302121485717 
978	 0,561392493143573 
979	 0,56251795087654 
980	 0,563210051297577 
981	 0,56335344133712 
982	 0,564264807731005 
983	 0,564409133667719 
984	 0,562419695027795 
985	 0,562186512257171 
986	 0,56313310836904 
987	 0,562641711789439 
988	 0,563442442933031 
989	 0,565103676547032 
990	 0,563358868240074 
991	 0,561873260607261 
992	 0,562380253918685 
993	 0,562424716745903 
994	 0,562864164898437 
995	 0,564519764540379 
996	 0,56365764793551 
997	 0,56234530997627 
998	 0,565859345722542 
999	 0,568171206885515 
1000	 0,567900882220977 
1001	 0,566711680768899 
1002	 0,566659455527221 
1003	 0,568456310217114 
1004	 0,569163570595707 
1005	 0,569504718074651 
1006	 0,570239121492432 
1007	 0,569207051656436 
1008	 0,567025399878996 
1009	 0,565295045478536 
1010	 0,56655716615457 
1011	 0,569800605223814 
1012	 0,56933658758323 
1013	 0,56849496581886 
1014	 0,568534865130293 
1015	 0,567696783729935 
1016	 0,56853907526976 
1017	 0,572551320743598 
1018	 0,572712072184928 
1019	 0,570888340968782 
1020	 0,571421311389803 
1021	 0,573279990546994 
1022	 0,574085798363477 
1023	 0,567102784930466 
1024	 0,565625534225637 
1025	 0,571899814477932 
1026	 0,573669018906342 
1027	 0,57266947783674 
1028	 0,570804024082698 
1029	 0,571851868687305 
1030	 0,572289743918777 
1031	 0,568302178192254 
1032	 0,572974034495258 
1033	 0,582179249475762 
1034	 0,582501127806985 
1035	 0,580795223967272 
1036	 0,578629700168546 
1037	 0,574961950003163 
1038	 0,571537503315144 
1039	 0,570389956107254 
1040	 0,576950697820844 
1041	 0,579881140882541 
1042	 0,57200431640128 
1043	 0,577099217361761 
1044	 0,58546157747517 
1045	 0,580138203311363 
1046	 0,576737129590622 
1047	 0,576416411625785 
1048	 0,573906840188981 
1049	 0,570997434014292 
1050	 0,568897915362062 
1051	 0,570846422047807 
1052	 0,573198613044873 
1053	 0,574086646016922 
1054	 0,574711347733733 
1055	 0,576736240804368 
1056	 0,580683558843283 
1057	 0,578910397732087 
1058	 0,575756007679337 
1059	 0,578051466240984 
1060	 0,574915203697491 
1061	 0,569148394795345 
1062	 0,572378338633592 
1063	 0,577675081972643 
1064	 0,581944697989335 
1065	 0,581473136236667 
1066	 0,582603347213702 
1067	 0,586351349432265 
1068	 0,581557179560108 
1069	 0,576746573777546 
1070	 0,577823807207128 
1071	 0,577998920348297 
1072	 0,57717965396054 
1073	 0,576287916591433 
1074	 0,576139513735767 
1075	 0,57301097302552 
