Wavelength	PENFOUL00469.asd
325	 0,321328033442472 
326	 0,243341765110982 
327	 7,16627413719326E-02 
328	-3,24161987142388E-02 
329	 6,27674106912727E-02 
330	 0,17311341325701 
331	 0,132075666011675 
332	 0,164341857197398 
333	 0,240625063584756 
334	 0,188118266661674 
335	 0,111010223228324 
336	 5,03831371702983E-02 
337	 1,18264731667669E-02 
338	 1,87903484096022E-02 
339	 7,98012053916844E-02 
340	 9,70537313746601E-02 
341	 8,44422598485306E-02 
342	 8,67086320974892E-02 
343	 9,69072542944617E-02 
344	 0,108014268602076 
345	 8,85745190887158E-02 
346	 5,20294943736613E-02 
347	 1,97866210782917E-02 
348	 4,51841383454447E-02 
349	 9,25818596386365E-02 
350	 5,11889866860289E-02 
351	 2,24634036629985E-02 
352	 4,09097780747635E-02 
353	 6,18083924959346E-02 
354	 6,46645405591115E-02 
355	 3,90978633831621E-02 
356	 4,60553215561953E-02 
357	 7,96135055252884E-02 
358	 8,17172726121672E-02 
359	 6,33650851903874E-02 
360	 3,38572584634175E-02 
361	 2,36965741407383E-02 
362	 3,83443520304185E-02 
363	 7,68122223063999E-02 
364	 7,72563692046913E-02 
365	 4,36111415229639E-02 
366	 3,83073155230168E-02 
367	 5,57112726726238E-02 
368	 8,34965752928233E-02 
369	 5,80395452298566E-02 
370	 2,23812613656575E-02 
371	 0,070819669274937 
372	 7,19920531084945E-02 
373	 1,92253522851691E-02 
374	 6,30992658058874E-02 
375	 9,57533578596582E-02 
376	 0,048898892132709 
377	 4,16793229107513E-02 
378	 6,28124016190924E-02 
379	 4,32049345914171E-02 
380	 3,38726820689667E-02 
381	 4,57736985375805E-02 
382	 4,25489958900588E-02 
383	 4,13650915687111E-02 
384	 5,76154469249109E-02 
385	 5,17956739712081E-02 
386	 3,24610428363419E-02 
387	 4,18536714727336E-02 
388	 4,52029718168059E-02 
389	 3,49202603557657E-02 
390	 4,76895768901036E-02 
391	 6,45680827550734E-02 
392	 5,98965731113763E-02 
393	 5,41242974655047E-02 
394	 0,050233723542398 
395	 4,24551036853488E-02 
396	 3,84939210113221E-02 
397	 4,04180262787378E-02 
398	 2,95976495336411E-02 
399	 2,16097003460212E-02 
400	 4,24228087470228E-02 
401	 4,63045982134274E-02 
402	 3,20217967865723E-02 
403	 4,09566470239343E-02 
404	 0,05168065535902 
405	 5,01949540253977E-02 
406	 4,69925848124672E-02 
407	 4,44326688579751E-02 
408	 4,44976969225973E-02 
409	 4,48148436831163E-02 
410	 4,41614107318403E-02 
411	 4,08070127337146E-02 
412	 3,71331582374746E-02 
413	 3,55287115066002E-02 
414	 0,03496736029682 
415	 3,59058010537489E-02 
416	 4,04908992352939E-02 
417	 4,26152812895447E-02 
418	 4,14916014557354E-02 
419	 4,98882623421917E-02 
420	 5,51202981675218E-02 
421	 4,06717229351422E-02 
422	 3,74014897319371E-02 
423	 4,61680068760778E-02 
424	 4,36648616587975E-02 
425	 0,039425000562995 
426	 3,92079195535199E-02 
427	 4,11279020034128E-02 
428	 4,27492058711913E-02 
429	 3,98209631667786E-02 
430	 4,01570615079969E-02 
431	 4,43085647819665E-02 
432	 4,37127828692216E-02 
433	 4,27697400664328E-02 
434	 0,045289824863979 
435	 4,45872129271616E-02 
436	 4,25779317062549E-02 
437	 4,77316364195206E-02 
438	 5,01202172131251E-02 
439	 4,66616052651037E-02 
440	 4,44961850978094E-02 
441	 4,47431122768886E-02 
442	 4,79350646996344E-02 
443	 0,046239178884924 
444	 4,08550803267226E-02 
445	 4,23651238721265E-02 
446	 0,045531181860324 
447	 4,69369526525986E-02 
448	 4,72115137786004E-02 
449	 4,67528948848439E-02 
450	 4,61096151761357E-02 
451	 4,67276006881375E-02 
452	 4,85431442861268E-02 
453	 4,91010400285229E-02 
454	 4,86478773891821E-02 
455	 4,75376380179691E-02 
456	 0,045448273885462 
457	 4,35910653773801E-02 
458	 4,53404852975067E-02 
459	 4,62436069991259E-02 
460	 4,48933505183131E-02 
461	 4,55227726854187E-02 
462	 4,74023852590671E-02 
463	 4,90764164883175E-02 
464	 4,81332922455358E-02 
465	 4,53925780594944E-02 
466	 4,59695297630558E-02 
467	 4,71629784622021E-02 
468	 4,73246037963943E-02 
469	 4,88759551230763E-02 
470	 5,05309530577064E-02 
471	 4,90325095091562E-02 
472	 4,85846580966295E-02 
473	 5,02022502911159E-02 
474	 5,21880249767012E-02 
475	 5,17388464073908E-02 
476	 4,66301711652867E-02 
477	 4,61362082867908E-02 
478	 4,97219202676817E-02 
479	 5,04122285206155E-02 
480	 5,05115286505042E-02 
481	 5,08986570815786E-02 
482	 5,07016541840904E-02 
483	 5,06530523268239E-02 
484	 5,18789585902255E-02 
485	 5,35967072826394E-02 
486	 5,48483009521867E-02 
487	 0,053089770208533 
488	 0,051448549530324 
489	 5,22502166911354E-02 
490	 5,33157136304093E-02 
491	 5,40244137621069E-02 
492	 5,40662821081229E-02 
493	 0,052779020966229 
494	 5,06995995586334E-02 
495	 5,17948469995678E-02 
496	 5,35173247407873E-02 
497	 5,27318994077692E-02 
498	 5,27128230915877E-02 
499	 5,35379945924994E-02 
500	 5,29837204803305E-02 
501	 5,32538726300079E-02 
502	 5,51984327970304E-02 
503	 5,51097574546528E-02 
504	 0,054033138362471 
505	 5,46392400109082E-02 
506	 5,48975307220482E-02 
507	 5,46138991761219E-02 
508	 5,55844852249463E-02 
509	 5,63874049602815E-02 
510	 5,58043788647504E-02 
511	 5,59542414927071E-02 
512	 5,67937718560079E-02 
513	 5,71367642815957E-02 
514	 5,74724982923534E-02 
515	 5,79702777632016E-02 
516	 5,84724402433172E-02 
517	 5,88471147620423E-02 
518	 5,89251968666331E-02 
519	 5,92460468083771E-02 
520	 5,99323022682128E-02 
521	 6,10397541541151E-02 
522	 6,13817121180727E-02 
523	 6,02553562941687E-02 
524	 5,97016776980088E-02 
525	 5,98938863297306E-02 
526	 0,060457360155841 
527	 6,08505263675943E-02 
528	 6,09551389497444E-02 
529	 6,16059062295296E-02 
530	 6,20117541618836E-02 
531	 6,12420263712289E-02 
532	 6,11234650266311E-02 
533	 6,18325384043329E-02 
534	 6,25537201484364E-02 
535	 6,29831849350013E-02 
536	 6,29963546903099E-02 
537	 6,33097024277096E-02 
538	 0,063942762276433 
539	 6,48061100176892E-02 
540	 6,51546282781653E-02 
541	 6,47810937957547E-02 
542	 6,38762996330631E-02 
543	 6,35524615119768E-02 
544	 6,47843207713068E-02 
545	 6,57332502897429E-02 
546	 6,58552274685991E-02 
547	 6,47219609816877E-02 
548	 6,39859574639193E-02 
549	 6,45023923385759E-02 
550	 6,57111029639866E-02 
551	 6,68708473704907E-02 
552	 6,69891556220156E-02 
553	 6,70467105449203E-02 
554	 6,73363102138176E-02 
555	 0,067821216220909 
556	 6,82287305541595E-02 
557	 6,83249499820147E-02 
558	 6,80581975427335E-02 
559	 6,78009916702543E-02 
560	 6,85720087880243E-02 
561	 6,89100492820255E-02 
562	 6,83849676579878E-02 
563	 6,83790058449343E-02 
564	 6,84661266241756E-02 
565	 6,79151314859485E-02 
566	 6,82014197628351E-02 
567	 6,92045845533029E-02 
568	 6,90864428218573E-02 
569	 6,90943933933846E-02 
570	 7,00053780893623E-02 
571	 7,03062270184123E-02 
572	 7,04468614284512E-02 
573	 7,20987066199088E-02 
574	 0,072532231567832 
575	 0,071366570596188 
576	 7,20439975690049E-02 
577	 7,34369937598956E-02 
578	 7,40198615029007E-02 
579	 7,50879727140332E-02 
580	 7,63533177636838E-02 
581	 7,61485129463944E-02 
582	 7,56283073984608E-02 
583	 7,56045538972127E-02 
584	 0,076861707921678 
585	 7,81898737850505E-02 
586	 7,72392247079791E-02 
587	 7,70155587641188E-02 
588	 7,81414303787968E-02 
589	 7,88704526621029E-02 
590	 0,079654499162971 
591	 8,08850813249074E-02 
592	 8,08193713242519E-02 
593	 7,98783262037582E-02 
594	 8,00811972219105E-02 
595	 8,05649111824086E-02 
596	 8,09178921174555E-02 
597	 8,10444828016362E-02 
598	 8,09485186964836E-02 
599	 8,06460465605199E-02 
600	 8,09124407383941E-02 
601	 8,15815043002171E-02 
602	 0,081076636732809 
603	 8,05276451086599E-02 
604	 8,07842580507021E-02 
605	 8,05558026373665E-02 
606	 0,080041079685069 
607	 8,03440730266676E-02 
608	 8,00760947911246E-02 
609	 7,91468242607375E-02 
610	 0,080303470707981 
611	 8,15503232762719E-02 
612	 8,02081903844469E-02 
613	 7,88223208457105E-02 
614	 7,82281418446387E-02 
615	 7,88946351442951E-02 
616	 7,97034069460867E-02 
617	 7,98989583126518E-02 
618	 7,98905616667349E-02 
619	 7,98218425434496E-02 
620	 7,99005995240491E-02 
621	 7,96559234591143E-02 
622	 7,91638953860287E-02 
623	 7,95746452110696E-02 
624	 7,99453959727148E-02 
625	 7,93052740010249E-02 
626	 7,96162589777256E-02 
627	 8,06599435755526E-02 
628	 8,05342635350511E-02 
629	 8,04682613490279E-02 
630	 8,10366653789519E-02 
631	 8,16204271431618E-02 
632	 8,20601797754457E-02 
633	 8,22310734239063E-02 
634	 8,22714950986008E-02 
635	 8,23110831658929E-02 
636	 8,25830926399181E-02 
637	 8,31464474452581E-02 
638	 8,39763627652214E-02 
639	 8,41845487189435E-02 
640	 8,39624575143057E-02 
641	 8,41820039604629E-02 
642	 8,46613624781072E-02 
643	 8,52618976922373E-02 
644	 8,54908570365292E-02 
645	 8,55517693930828E-02 
646	 8,57757049695811E-02 
647	 8,57260367759276E-02 
648	 8,54249260591219E-02 
649	 8,52371926488604E-02 
650	 8,54146626221723E-02 
651	 8,59812746886273E-02 
652	 8,55056652246042E-02 
653	 8,44915153330775E-02 
654	 8,44126902733344E-02 
655	 8,42486249807272E-02 
656	 8,36756987477286E-02 
657	 8,26994303813635E-02 
658	 8,20450326816611E-02 
659	 8,24010735336397E-02 
660	 8,22128952055749E-02 
661	 8,13100845848455E-02 
662	 0,080154405105175 
663	 7,95008630107581E-02 
664	 7,95889821554075E-02 
665	 7,89810657589872E-02 
666	 0,077894634701672 
667	 7,68938823972641E-02 
668	 7,66773314682811E-02 
669	 7,71866608846113E-02 
670	 7,72677734207542E-02 
671	 7,71886152457621E-02 
672	 7,71834860402376E-02 
673	 7,72157576705214E-02 
674	 7,71043094726913E-02 
675	 0,076224827462284 
676	 7,63149300872136E-02 
677	 7,76571722314161E-02 
678	 7,77969697596764E-02 
679	 7,75304280950561E-02 
680	 7,80332893499064E-02 
681	 7,83812638334529E-02 
682	 7,85511882613914E-02 
683	 7,91334984858172E-02 
684	 7,97087690642566E-02 
685	 8,00926752626982E-02 
686	 8,08547086895833E-02 
687	 8,19668550776994E-02 
688	 8,32476816281889E-02 
689	 8,45869830513563E-02 
690	 8,60308249894748E-02 
691	 8,79919139541419E-02 
692	 9,00797855614115E-02 
693	 9,19627634573931E-02 
694	 9,42440071448891E-02 
695	 9,68918165853109E-02 
696	 9,94750057851632E-02 
697	 0,102528669653092 
698	 0,106166402724908 
699	 0,109810527247569 
700	 0,11313725481088 
701	 0,115824535414879 
702	 0,119000328619728 
703	 0,122712367197154 
704	 0,126149703904326 
705	 0,129214662914889 
706	 0,131907658546655 
707	 0,134844795087096 
708	 0,137956915436039 
709	 0,140968153569204 
710	 0,14363201793736 
711	 0,145864711277256 
712	 0,147804365458061 
713	 0,149602367268577 
714	 0,151375229618802 
715	 0,152833446984877 
716	 0,154172845179305 
717	 0,156109272834009 
718	 0,157551969697124 
719	 0,158243515786093 
720	 0,159671391808463 
721	 0,161280310474534 
722	 0,162196785232199 
723	 0,163104283109348 
724	 0,164179556427846 
725	 0,165528950419463 
726	 0,166395449011388 
727	 0,166473671688042 
728	 0,167434083926673 
729	 0,168717845210582 
730	 0,168907808633158 
731	 0,169107793369769 
732	 0,169600057715115 
733	 0,170077780310536 
734	 0,170537731839768 
735	 0,170981743536322 
736	 0,171354846185035 
737	 0,171817854789128 
738	 0,172872760685862 
739	 0,173558774143477 
740	 0,173583128360144 
741	 0,173645300742826 
742	 0,173799428882706 
743	 0,174037170996805 
744	 0,174346136196376 
745	 0,174723017058054 
746	 0,175229570590846 
747	 0,175490674413234 
748	 0,175413409721878 
749	 0,175941146946805 
750	 0,176623606030849 
751	 0,176595734961441 
752	 0,176774735231997 
753	 0,17720596464697 
754	 0,177046371984354 
755	 0,176952115054795 
756	 0,177371768426583 
757	 0,177648370072076 
758	 0,177890120278013 
759	 0,17858077999567 
760	 0,178851896235165 
761	 0,178599188818145 
762	 0,178773004168415 
763	 0,179122194146747 
764	 0,17936066274907 
765	 0,17950885463239 
766	 0,179593390291931 
767	 0,179643658322543 
768	 0,179953597745527 
769	 0,180532108183183 
770	 0,180671830678105 
771	 0,180700595969864 
772	 0,18106328224916 
773	 0,181057061017741 
774	 0,180819930928925 
775	 0,181248486592131 
776	 0,181710508529389 
777	 0,181865857983938 
778	 0,181792549206602 
779	 0,181762080133964 
780	 0,182147259197558 
781	 0,182679636536245 
782	 0,183168202397783 
783	 0,183240901508169 
784	 0,183305760267994 
785	 0,183598991695659 
786	 0,183629092161354 
787	 0,183604741474716 
788	 0,184030336747772 
789	 0,184165424010126 
790	 0,183989357011211 
791	 0,18442016323352 
792	 0,18481135325604 
793	 0,184665157223104 
794	 0,184631312459116 
795	 0,184761964331224 
796	 0,184894180048265 
797	 0,185345830457512 
798	 0,186014814470042 
799	 0,185927861123013 
800	 0,185807928187781 
801	 0,18633864516687 
802	 0,18669822195275 
803	 0,186802172252756 
804	 0,186841191877246 
805	 0,186833461529224 
806	 0,186814408542848 
807	 0,186808671395456 
808	 0,18693769798532 
809	 0,187298270647553 
810	 0,187242891306938 
811	 0,18695381710384 
812	 0,18731330350523 
813	 0,187794700303472 
814	 0,188107369470825 
815	 0,18792737991649 
816	 0,187772495675553 
817	 0,188268764108062 
818	 0,188649413475102 
819	 0,188803734974167 
820	 0,18894133575103 
821	 0,189190415362531 
822	 0,189525366011913 
823	 0,18929105115364 
824	 0,189025294381537 
825	 0,189482440395614 
826	 0,190132446129012 
827	 0,190601271612055 
828	 0,190146972755811 
829	 0,189799093816138 
830	 0,189993832719523 
831	 0,1895524212223 
832	 0,189293108886959 
833	 0,190458099872921 
834	 0,190775501470273 
835	 0,19008956768348 
836	 0,189834415761853 
837	 0,189920879765597 
838	 0,190289597869611 
839	 0,19059584121571 
840	 0,190997000916653 
841	 0,191778693565981 
842	 0,191702343206529 
843	 0,190920336461339 
844	 0,191002354903087 
845	 0,191209228976452 
846	 0,191217377558638 
847	 0,191772696247143 
848	 0,192194999751647 
849	 0,191457013849684 
850	 0,191162014706482 
851	 0,191535926049886 
852	 0,191933947833114 
853	 0,19192280708622 
854	 0,191399731945838 
855	 0,191535198896931 
856	 0,191929727619116 
857	 0,191858114433209 
858	 0,192056861818107 
859	 0,192484821138858 
860	 0,192497730527619 
861	 0,192257370628242 
862	 0,191973081598519 
863	 0,192411477993766 
864	 0,193030550625419 
865	 0,193031571444031 
866	 0,193129656089809 
867	 0,193359250464425 
868	 0,193362107448423 
869	 0,193067829145945 
870	 0,192613070788351 
871	 0,193038764083651 
872	 0,193636074480046 
873	 0,193454557607706 
874	 0,193123349559442 
875	 0,192954862500431 
876	 0,193409658136252 
877	 0,193999937305545 
878	 0,194389199067561 
879	 0,19416766041899 
880	 0,193522319475564 
881	 0,192755153658323 
882	 0,192691757592665 
883	 0,193315392232738 
884	 0,194185311381218 
885	 0,194563373661926 
886	 0,194229979203491 
887	 0,193780530967249 
888	 0,193831411942026 
889	 0,194814774041132 
890	 0,195265599067232 
891	 0,195070826070608 
892	 0,194570370433873 
893	 0,194611203379872 
894	 0,195215675546407 
895	 0,194920795403303 
896	 0,194857987368512 
897	 0,195782702284916 
898	 0,195731288619895 
899	 0,195125397912365 
900	 0,195245483605051 
901	 0,19540515757728 
902	 0,19556029467325 
903	 0,196287310026641 
904	 0,196694599052106 
905	 0,196283032843953 
906	 0,195836869176177 
907	 0,195519181713343 
908	 0,19540038637812 
909	 0,196169478642865 
910	 0,197377270139252 
911	 0,197103232672609 
912	 0,196915606750017 
913	 0,197453514036626 
914	 0,19778875958602 
915	 0,197882375391647 
916	 0,197773605918914 
917	 0,197296485930733 
918	 0,196754677585184 
919	 0,196997425320034 
920	 0,196883103923697 
921	 0,196299948638791 
922	 0,196725022013599 
923	 0,19728181792926 
924	 0,197227435517934 
925	 0,197271734015828 
926	 0,197496238123218 
927	 0,19788068428539 
928	 0,197738260288871 
929	 0,197028838695537 
930	 0,196167219645536 
931	 0,196552467322753 
932	 0,198624187237552 
933	 0,199490280209349 
934	 0,199209484324416 
935	 0,198350541098622 
936	 0,197215533953817 
937	 0,19649071495942 
938	 0,197755654959005 
939	 0,198712866537333 
940	 0,198486182066186 
941	 0,197731314867385 
942	 0,197332239951992 
943	 0,197956057186137 
944	 0,198257437289048 
945	 0,19838746307353 
946	 0,199085998435461 
947	 0,199353024902134 
948	 0,198883790581854 
949	 0,197606179743868 
950	 0,196898008301679 
951	 0,197440343793606 
952	 0,197958446123773 
953	 0,197993554562945 
954	 0,197244549882895 
955	 0,197482480130659 
956	 0,198215964463851 
957	 0,196996708066099 
958	 0,196972109122243 
959	 0,198573377373328 
960	 0,198542902413473 
961	 0,197885388973266 
962	 0,197678436412233 
963	 0,199654438010483 
964	 0,201627269626067 
965	 0,20003072066004 
966	 0,197749048249408 
967	 0,196341618466942 
968	 0,198234865602178 
969	 0,199365360631112 
970	 0,198206652578691 
971	 0,197121281620033 
972	 0,196500004488309 
973	 0,196641372398996 
974	 0,198401567182365 
975	 0,20009966417173 
976	 0,198630165954169 
977	 0,197605971124818 
978	 0,197951181555968 
979	 0,198929990034224 
980	 0,200573634575964 
981	 0,202257630377414 
982	 0,20076076285889 
983	 0,199332547874998 
984	 0,201198595565748 
985	 0,201240540825061 
986	 0,199939808564968 
987	 0,199977080658899 
988	 0,201053013603112 
989	 0,202261594897836 
990	 0,200338038414943 
991	 0,199866958144439 
992	 0,202577041395016 
993	 0,203267453930115 
994	 0,202582650482682 
995	 0,201768412893733 
996	 0,201775674666399 
997	 0,202691790487527 
998	 0,204297952020287 
999	 0,204109849291301 
1000	 0,202620019183499 
1001	 0,204503348906457 
1002	 0,205775985216608 
1003	 0,204991735533882 
1004	 0,206411307941483 
1005	 0,207609359812287 
1006	 0,206162223514386 
1007	 0,205140330169117 
1008	 0,204979562026057 
1009	 0,205405629551738 
1010	 0,206687775418931 
1011	 0,20767186606338 
1012	 0,204253031196436 
1013	 0,202881031566815 
1014	 0,206212392750395 
1015	 0,212032236940533 
1016	 0,214373989807112 
1017	 0,209341767003614 
1018	 0,207609292533219 
1019	 0,209395870654429 
1020	 0,212311693744445 
1021	 0,210232721346041 
1022	 0,205258645932966 
1023	 0,208337040721755 
1024	 0,208214908555807 
1025	 0,203592617712533 
1026	 0,206343311611898 
1027	 0,21128897308583 
1028	 0,213981503124211 
1029	 0,210339946428893 
1030	 0,204784042738161 
1031	 0,203225575119904 
1032	 0,204940741386509 
1033	 0,209546663629629 
1034	 0,216356902384631 
1035	 0,218552348459693 
1036	 0,214742333343181 
1037	 0,20744642522741 
1038	 0,203039377208421 
1039	 0,204556799023793 
1040	 0,208581177509828 
1041	 0,212963022371729 
1042	 0,216072312051997 
1043	 0,220043115760103 
1044	 0,223993980428999 
1045	 0,226033849642385 
1046	 0,213151985469073 
1047	 0,19680531554596 
1048	 0,21148334324251 
1049	 0,218543161051085 
1050	 0,210712210984221 
1051	 0,206696827507656 
1052	 0,208632280976773 
1053	 0,215502219576948 
1054	 0,214831181863618 
1055	 0,211946122552223 
1056	 0,212398311998728 
1057	 0,216021327665202 
1058	 0,217667325177856 
1059	 0,21120780122975 
1060	 0,211932744036065 
1061	 0,218409295319435 
1062	 0,219188248453545 
1063	 0,217697396747591 
1064	 0,21601268492518 
1065	 0,218623536981904 
1066	 0,220753050695014 
1067	 0,220271504463264 
1068	 0,219199244046514 
1069	 0,216539591480806 
1070	 0,212215899318404 
1071	 0,212799916467157 
1072	 0,211782960443764 
1073	 0,201735349239501 
1074	 0,199653855743892 
1075	 0,205588759817326 
