Wavelength	PENFOUL00405.asd
325	 0,124355132960408 
326	 0,141031413889919 
327	 8,98471325132331E-02 
328	 2,28371212713707E-04 
329	-3,89195319346358E-02 
330	-6,18344707679778E-03 
331	 6,67123925339134E-02 
332	 0,10351830787457 
333	 0,120274098339901 
334	 9,28983173675249E-02 
335	 0,052153250545107 
336	 1,95983252231305E-02 
337	 3,21243916515724E-02 
338	 5,73087297269139E-02 
339	 6,12689869551643E-02 
340	 9,32937514358949E-02 
341	 0,123450569245893 
342	 7,55364569186263E-02 
343	 6,12329079247517E-02 
344	 9,57002695503224E-02 
345	 1,78413140497779E-02 
346	-5,86220321971118E-02 
347	-2,22000612066145E-02 
348	 2,17728460480106E-02 
349	 0,053676510606687 
350	 6,14573846095347E-02 
351	 5,02608584776349E-02 
352	 2,87628846613156E-02 
353	 4,23243961448459E-02 
354	 5,64429274559156E-02 
355	 0,035979646378647 
356	 3,89020824698384E-02 
357	 6,08126364779319E-02 
358	 0,050301768405059 
359	 4,01828694495869E-02 
360	 4,06344520198501E-02 
361	 1,71524533535912E-02 
362	 6,21623454418047E-04 
363	 0,040098175968056 
364	 5,53204898831074E-02 
365	 4,16557047824318E-02 
366	 4,59016026942766E-02 
367	 5,09757681748982E-02 
368	 4,59460094401255E-02 
369	 2,86243203163618E-02 
370	 1,50279180702068E-02 
371	 3,54270155373411E-02 
372	 3,67165770218539E-02 
373	 2,02874127706895E-02 
374	 6,61838016985431E-02 
375	 9,38358371905794E-02 
376	 5,49321864769024E-02 
377	 3,97634977192348E-02 
378	 4,57102909184519E-02 
379	 2,65270355336378E-02 
380	 1,98573825925286E-02 
381	 3,66863626618504E-02 
382	 6,45389510957056E-02 
383	 7,85635665247136E-02 
384	 5,97027590464396E-02 
385	 4,21846653090211E-02 
386	 3,36461003002478E-02 
387	 3,08617806259203E-02 
388	 3,94009043610688E-02 
389	 5,57044120112999E-02 
390	 0,054552408830223 
391	 4,45538614134246E-02 
392	 3,84823660587467E-02 
393	 3,15686261065133E-02 
394	 2,52737399508578E-02 
395	 2,50632971514528E-02 
396	 2,83262847552098E-02 
397	 3,32845222972148E-02 
398	 3,95067662048514E-02 
399	 4,33747494971141E-02 
400	 4,01687737905924E-02 
401	 3,68917534872421E-02 
402	 3,51776773618809E-02 
403	 3,30709316659718E-02 
404	 0,033949513616373 
405	 0,038869228144162 
406	 0,037416470103874 
407	 3,22204529695027E-02 
408	 3,16187847361687E-02 
409	 3,24427651611469E-02 
410	 3,36769157395782E-02 
411	 3,48072692799412E-02 
412	 3,63551599770486E-02 
413	 3,85203843922556E-02 
414	 3,52845029160681E-02 
415	 2,93133033826098E-02 
416	 2,99626880344369E-02 
417	 3,22589037113694E-02 
418	 3,44673248293143E-02 
419	 3,99247499900097E-02 
420	 4,28404219741198E-02 
421	 0,03611017204482 
422	 3,29225853564701E-02 
423	 3,47104326985214E-02 
424	 3,47420673198747E-02 
425	 3,36466036694406E-02 
426	 3,22822417647616E-02 
427	 3,53731471528876E-02 
428	 3,84817885288219E-02 
429	 3,24231095015622E-02 
430	 2,84316625658731E-02 
431	 2,95050094591166E-02 
432	 0,032431215414712 
433	 3,52654585261566E-02 
434	 3,64801697523512E-02 
435	 3,62810732511543E-02 
436	 3,57666639761591E-02 
437	 3,76088397189973E-02 
438	 3,92970327125606E-02 
439	 3,96392541927674E-02 
440	 0,038155945194969 
441	 3,67120562645191E-02 
442	 3,76655335028734E-02 
443	 3,68374206918548E-02 
444	 3,47202063292016E-02 
445	 3,61221378349526E-02 
446	 3,92571650588167E-02 
447	 4,22448717938248E-02 
448	 3,99002423607232E-02 
449	 3,45370677110181E-02 
450	 3,12401533752607E-02 
451	 3,41893882711168E-02 
452	 4,21448132931166E-02 
453	 4,32926445968534E-02 
454	 0,041094806188623 
455	 3,93020897313203E-02 
456	 0,036599488274416 
457	 3,37138936298399E-02 
458	 3,23696840771186E-02 
459	 3,30436836023814E-02 
460	 3,56222728808577E-02 
461	 3,80068797033838E-02 
462	 3,99162074449133E-02 
463	 4,13477006634072E-02 
464	 0,040675465495478 
465	 3,85240177874128E-02 
466	 3,81902614698357E-02 
467	 3,89626097323545E-02 
468	 4,00756896390907E-02 
469	 0,03884375090629 
470	 3,74694076433826E-02 
471	 4,11705076608697E-02 
472	 4,42725687883862E-02 
473	 0,044961399695705 
474	 4,46800350260936E-02 
475	 4,34368797523792E-02 
476	 4,12592516213616E-02 
477	 3,94366534097589E-02 
478	 3,85664105769172E-02 
479	 0,039303263305591 
480	 4,02546934205994E-02 
481	 4,07264346696424E-02 
482	 4,11554141358076E-02 
483	 4,17155250777223E-02 
484	 4,26430771034904E-02 
485	 4,30677874068765E-02 
486	 4,27470314953544E-02 
487	 4,14860736296702E-02 
488	 4,14309409598624E-02 
489	 4,39282550404386E-02 
490	 4,52317800874216E-02 
491	 4,50448494102159E-02 
492	 4,42495841548045E-02 
493	 4,30636130272232E-02 
494	 4,19871869442155E-02 
495	 4,26078870344404E-02 
496	 4,32923733782922E-02 
497	 4,21311252691091E-02 
498	 4,20563923987777E-02 
499	 4,32699834806731E-02 
500	 4,43587975132206E-02 
501	 4,50361695774336E-02 
502	 4,51341360621963E-02 
503	 4,50149144707962E-02 
504	 0,044937454560786 
505	 4,52239339245313E-02 
506	 4,55920170071184E-02 
507	 4,58769883728529E-02 
508	 4,58993445403217E-02 
509	 4,54455338854294E-02 
510	 4,44570766988678E-02 
511	 4,51088557931745E-02 
512	 4,69454265979764E-02 
513	 4,78286442092205E-02 
514	 4,81885095439299E-02 
515	 4,82382478712567E-02 
516	 4,84824250219452E-02 
517	 4,87523180172859E-02 
518	 4,87094778631964E-02 
519	 4,89829429874961E-02 
520	 4,97659466865595E-02 
521	 5,14376520366861E-02 
522	 5,17539681274719E-02 
523	 4,94589645606983E-02 
524	 4,93908198730035E-02 
525	 5,08062425278129E-02 
526	 5,01778432806675E-02 
527	 4,98267263704042E-02 
528	 5,04234917453313E-02 
529	 5,13414368060078E-02 
530	 5,20255894818531E-02 
531	 5,19209441899955E-02 
532	 5,13784069037172E-02 
533	 5,08911365416452E-02 
534	 5,16760686312147E-02 
535	 5,23001680807801E-02 
536	 5,20074968873462E-02 
537	 5,20295984849909E-02 
538	 5,26839618041259E-02 
539	 5,44109941736758E-02 
540	 5,47315887645783E-02 
541	 5,33334410425427E-02 
542	 5,26686093347562E-02 
543	 5,29319226080869E-02 
544	 5,41024937677551E-02 
545	 0,054669660944578 
546	 5,45895587804724E-02 
547	 5,48047226129457E-02 
548	 5,47028247412175E-02 
549	 5,42716640923965E-02 
550	 5,54716132655351E-02 
551	 5,70062509682021E-02 
552	 0,056591922504928 
553	 5,57867881491411E-02 
554	 5,53797473087847E-02 
555	 5,65372979866813E-02 
556	 5,79282948888461E-02 
557	 0,058416686846269 
558	 0,058627873297576 
559	 0,058612076656556 
560	 5,81155651217531E-02 
561	 5,81593942769164E-02 
562	 5,89275964787403E-02 
563	 5,87585107176249E-02 
564	 5,80000255010324E-02 
565	 5,73012947957374E-02 
566	 5,75566212235002E-02 
567	 0,058631565206296 
568	 5,91780405737053E-02 
569	 5,93083595356742E-02 
570	 5,91815652198578E-02 
571	 5,95797978126762E-02 
572	 6,03466297653342E-02 
573	 6,09312095822238E-02 
574	 6,09573153057006E-02 
575	 6,05146429127854E-02 
576	 6,09231206846835E-02 
577	 0,061711454093086 
578	 0,062237893555009 
579	 6,26516795315423E-02 
580	 6,29699860343614E-02 
581	 6,31520271554362E-02 
582	 6,35458962979608E-02 
583	 6,43029436325725E-02 
584	 6,49434643805813E-02 
585	 6,52585349206022E-02 
586	 6,49240750143482E-02 
587	 6,55824321985528E-02 
588	 6,71975325374485E-02 
589	 6,70842479548567E-02 
590	 6,70477202044726E-02 
591	 6,87099338173574E-02 
592	 6,84908421000251E-02 
593	 6,68818326262614E-02 
594	 6,70970909546249E-02 
595	 6,76329655424264E-02 
596	 6,78428267720477E-02 
597	 6,79952576080242E-02 
598	 6,82290637313996E-02 
599	 6,87406263152645E-02 
600	 6,89257873951088E-02 
601	 6,87324082495174E-02 
602	 6,86582436576366E-02 
603	 6,87458387266034E-02 
604	 0,068957745491849 
605	 6,84747502257615E-02 
606	 6,77000360155401E-02 
607	 6,79883267732315E-02 
608	 0,068062016229776 
609	 6,76670602075072E-02 
610	 0,068312301863489 
611	 6,89910996678253E-02 
612	 6,83461734445492E-02 
613	 6,73361184926582E-02 
614	 6,65316362331592E-02 
615	 6,68735758105415E-02 
616	 6,75065913647614E-02 
617	 6,78418812776962E-02 
618	 6,80397193907258E-02 
619	 6,81327400210294E-02 
620	 6,82144516718605E-02 
621	 6,78542101061612E-02 
622	 6,71421321327643E-02 
623	 6,71352405255041E-02 
624	 6,74109229134118E-02 
625	 6,74830268792878E-02 
626	 6,80173990022217E-02 
627	 6,86410220252672E-02 
628	 6,78187050224881E-02 
629	 6,73929961611372E-02 
630	 6,82555280357383E-02 
631	 0,069383266441877 
632	 7,00936590113634E-02 
633	 6,94958337090085E-02 
634	 6,93350297673137E-02 
635	 6,99553296729735E-02 
636	 7,04082560341544E-02 
637	 7,05644978473212E-02 
638	 7,04208828625524E-02 
639	 7,12517871370901E-02 
640	 7,25096462405733E-02 
641	 7,21781701647941E-02 
642	 7,20026218005849E-02 
643	 7,25280126271703E-02 
644	 7,25066562177861E-02 
645	 0,07236307963122 
646	 7,27824886249195E-02 
647	 7,29268767645767E-02 
648	 0,072670713686385 
649	 7,22803542177104E-02 
650	 7,21955607001449E-02 
651	 7,26569705051164E-02 
652	 7,30540953689944E-02 
653	 7,29416693535226E-02 
654	 0,071530355037828 
655	 7,09220037766028E-02 
656	 7,14104483379074E-02 
657	 7,04019472613179E-02 
658	 6,94720852321378E-02 
659	 7,03000021920894E-02 
660	 6,98348585041071E-02 
661	 6,81965944117102E-02 
662	 6,75905843866027E-02 
663	 6,74753761821609E-02 
664	 6,75142466519668E-02 
665	 6,71418927607046E-02 
666	 6,64408246411046E-02 
667	 6,56061313702859E-02 
668	 6,58217017120677E-02 
669	 0,066908245802179 
670	 6,67804104621857E-02 
671	 6,61884583430377E-02 
672	 6,58144095322119E-02 
673	 6,58646957401101E-02 
674	 6,60655914982436E-02 
675	 6,54822703473069E-02 
676	 6,57248907859082E-02 
677	 6,70073505280648E-02 
678	 6,69715918556986E-02 
679	 6,64393319854363E-02 
680	 6,66083815367514E-02 
681	 6,68216975306535E-02 
682	 6,70676016662313E-02 
683	 0,067805934640841 
684	 6,82473127714713E-02 
685	 6,80649844788438E-02 
686	 6,85934304655119E-02 
687	 6,98058221837611E-02 
688	 7,13554468219227E-02 
689	 7,26547140488512E-02 
690	 7,36837038142616E-02 
691	 7,54252286590434E-02 
692	 7,70955741065244E-02 
693	 7,80612951668909E-02 
694	 8,00670835091388E-02 
695	 8,29695246625721E-02 
696	 8,56389880863006E-02 
697	 8,79477653668091E-02 
698	 8,99641913902039E-02 
699	 0,092772001715373 
700	 9,58994039699019E-02 
701	 9,86109950987126E-02 
702	 0,101343315130249 
703	 0,104129781062178 
704	 0,106778099087093 
705	 0,109413563597236 
706	 0,11204772492763 
707	 0,114070205172446 
708	 0,11578185572446 
709	 0,117898619296537 
710	 0,119867959359103 
711	 0,121595040380651 
712	 0,123465116179651 
713	 0,125194572849474 
714	 0,126512219153826 
715	 0,127660633340449 
716	 0,128764123685841 
717	 0,130026440051676 
718	 0,131074313196706 
719	 0,131842605816578 
720	 0,132988877637137 
721	 0,134152083537385 
722	 0,134805118794778 
723	 0,135485574758425 
724	 0,136289199923087 
725	 0,13708972830971 
726	 0,137722768970662 
727	 0,138145420648403 
728	 0,138934796300829 
729	 0,13978524656266 
730	 0,140006543198176 
731	 0,140289349973666 
732	 0,140775638806263 
733	 0,141109871734664 
734	 0,141350131733999 
735	 0,14158026875598 
736	 0,142100624994341 
737	 0,142795152436278 
738	 0,143264368145863 
739	 0,143616760754877 
740	 0,143889159308882 
741	 0,144164407057889 
742	 0,144280792240781 
743	 0,144061882682789 
744	 0,144436132895944 
745	 0,145310774652354 
746	 0,145776804457623 
747	 0,145888953575012 
748	 0,145751441820674 
749	 0,146014856847639 
750	 0,146465877970095 
751	 0,146649243992021 
752	 0,146779267147748 
753	 0,146918107910482 
754	 0,147095370884549 
755	 0,14726670166121 
756	 0,147421246331656 
757	 0,147814759109214 
758	 0,148237469268357 
759	 0,148175813889656 
760	 0,148230753022896 
761	 0,148553432786417 
762	 0,148855283247886 
763	 0,149051561116244 
764	 0,149096840421169 
765	 0,149365967896721 
766	 0,149761783887218 
767	 0,149821468632323 
768	 0,149962928996931 
769	 0,150271447878095 
770	 0,150186844275969 
771	 0,150212321357332 
772	 0,150960904031825 
773	 0,151167867260357 
774	 0,150887115014648 
775	 0,151193760584476 
776	 0,151646750032398 
777	 0,151986568537734 
778	 0,152046435771088 
779	 0,151996380795244 
780	 0,152106969960144 
781	 0,152603810944599 
782	 0,153224355473193 
783	 0,152772687432221 
784	 0,152476990098212 
785	 0,153083017730606 
786	 0,1534900903196 
787	 0,15373289188782 
788	 0,154191678713368 
789	 0,154192876231409 
790	 0,153753623851726 
791	 0,153810235484606 
792	 0,153925620299639 
793	 0,15378262612696 
794	 0,154120878654097 
795	 0,154640602304759 
796	 0,154388138700157 
797	 0,154716273505246 
798	 0,155732467638998 
799	 0,155682752080248 
800	 0,15537291517021 
801	 0,155619706769958 
802	 0,155785821212954 
803	 0,155910452545172 
804	 0,156392626648602 
805	 0,156790305498952 
806	 0,156940550038274 
807	 0,156967414266761 
808	 0,156980194812023 
809	 0,157086638342876 
810	 0,157277206601098 
811	 0,157426707974026 
812	 0,157165036762193 
813	 0,157054635779616 
814	 0,157317178923886 
815	 0,15766644432208 
816	 0,157929759776211 
817	 0,157946019059504 
818	 0,158126030455659 
819	 0,158435605322321 
820	 0,158471371396302 
821	 0,158509637367924 
822	 0,158682044529704 
823	 0,158906572395905 
824	 0,159191315112204 
825	 0,159551841473913 
826	 0,160041091791929 
827	 0,16034482639596 
828	 0,159343707962674 
829	 0,159006642843141 
830	 0,160064363622349 
831	 0,159784837056584 
832	 0,159183046236176 
833	 0,160017653939464 
834	 0,160334486434605 
835	 0,159973838328821 
836	 0,160066769862945 
837	 0,160121746208624 
838	 0,159948602269458 
839	 0,160032988584905 
840	 0,160389723420911 
841	 0,160957902316401 
842	 0,161046139749206 
843	 0,16073230245097 
844	 0,160953633200507 
845	 0,161006725606395 
846	 0,160697222200958 
847	 0,161586685165777 
848	 0,162425030932327 
849	 0,16126751671576 
850	 0,160853240404179 
851	 0,161464237796421 
852	 0,161623759525378 
853	 0,161514858958258 
854	 0,161282109604277 
855	 0,161356282783107 
856	 0,161619259400901 
857	 0,161833091766607 
858	 0,161921568634087 
859	 0,161924033611444 
860	 0,162081170819988 
861	 0,162112163165858 
862	 0,161971891919743 
863	 0,162332626201909 
864	 0,16294909929481 
865	 0,163403474204666 
866	 0,163166128162794 
867	 0,16260739276306 
868	 0,163358999029734 
869	 0,163607528548232 
870	 0,162698037071326 
871	 0,16222387171844 
872	 0,162490477946318 
873	 0,163608736355031 
874	 0,163737840969133 
875	 0,163160163507638 
876	 0,164066867583743 
877	 0,164566111302279 
878	 0,164068863452558 
879	 0,164054417776938 
880	 0,1641984218272 
881	 0,164046575180022 
882	 0,164006293358169 
883	 0,164090469970732 
884	 0,164120863282851 
885	 0,164175086459707 
886	 0,164303163473861 
887	 0,164630504437851 
888	 0,164973295330841 
889	 0,165119407224977 
890	 0,164582509337447 
891	 0,164012925647495 
892	 0,165045045093316 
893	 0,165640605430814 
894	 0,16530210976356 
895	 0,16502177330962 
896	 0,165077555580328 
897	 0,16558293188016 
898	 0,165633940285136 
899	 0,16538385626934 
900	 0,165361243586543 
901	 0,165501041376276 
902	 0,165741715373388 
903	 0,165894843162653 
904	 0,165960822850228 
905	 0,165907901605108 
906	 0,165429577764287 
907	 0,165170735518605 
908	 0,166050023719374 
909	 0,166551188845422 
910	 0,166510848877471 
911	 0,166664926667474 
912	 0,16708491606699 
913	 0,167682276150713 
914	 0,167615433056612 
915	 0,167432923152604 
916	 0,167768510445524 
917	 0,167235360949083 
918	 0,166340582712271 
919	 0,167066367496991 
920	 0,167616512450189 
921	 0,167562695954771 
922	 0,168142067435543 
923	 0,168402926341059 
924	 0,16764052563536 
925	 0,167388648027105 
926	 0,167543028704911 
927	 0,167449142250161 
928	 0,16738359684493 
929	 0,167302604411892 
930	 0,166708254549646 
931	 0,166680685381639 
932	 0,167708511574889 
933	 0,168438487478731 
934	 0,168906098696426 
935	 0,16934731632314 
936	 0,168719298748723 
937	 0,167778921715413 
938	 0,16937889206374 
939	 0,170246732078758 
940	 0,169412697236661 
941	 0,168861390738681 
942	 0,168912902770274 
943	 0,169615793767208 
944	 0,169353555985498 
945	 0,168607621133087 
946	 0,168772790441832 
947	 0,169185662342486 
948	 0,169634239694905 
949	 0,17017374019991 
950	 0,169955602875008 
951	 0,168721615716236 
952	 0,168147754285532 
953	 0,167987866961857 
954	 0,167744707368219 
955	 0,168480206093461 
956	 0,169385426075914 
957	 0,167747937268519 
958	 0,167149104122839 
959	 0,168332008928231 
960	 0,168650285089987 
961	 0,168001487256636 
962	 0,166707309535445 
963	 0,167552857463515 
964	 0,169286754619202 
965	 0,169427843608295 
966	 0,1680994612647 
967	 0,166551987073269 
968	 0,16871346847407 
969	 0,17014714412284 
970	 0,169163652065189 
971	 0,168095954043408 
972	 0,166736553119012 
973	 0,165133106806749 
974	 0,167250956016317 
975	 0,170527980434242 
976	 0,169337583549993 
977	 0,168547014190004 
978	 0,169135846186296 
979	 0,169502624611134 
980	 0,170685980439467 
981	 0,172737146105398 
982	 0,173206043443802 
983	 0,172939770688561 
984	 0,172898927327467 
985	 0,171188682059754 
986	 0,169049615436061 
987	 0,169341599739327 
988	 0,170584063129137 
989	 0,171834271181569 
990	 0,171468454398813 
991	 0,170932635463687 
992	 0,171004796616268 
993	 0,171130269533691 
994	 0,171895034901446 
995	 0,173635874370072 
996	 0,172141241109971 
997	 0,1700794699513 
998	 0,174072101376994 
999	 0,175752586126012 
1000	 0,174259976993455 
1001	 0,175773703392271 
1002	 0,176970249090694 
1003	 0,176444550216089 
1004	 0,176195069151009 
1005	 0,176131725233109 
1006	 0,175923374984447 
1007	 0,174224972494524 
1008	 0,17258569351676 
1009	 0,174023103976837 
1010	 0,174800013044735 
1011	 0,174125833658504 
1012	 0,172752623266715 
1013	 0,172873292269281 
1014	 0,175316895594729 
1015	 0,178809890761858 
1016	 0,180274131536457 
1017	 0,177940893277688 
1018	 0,179544980442586 
1019	 0,182550750150183 
1020	 0,181595249718634 
1021	 0,179273334629959 
1022	 0,176902044907138 
1023	 0,176295276916536 
1024	 0,176314953076515 
1025	 0,177212099246194 
1026	 0,181926953613989 
1027	 0,185306983591755 
1028	 0,184505936434304 
1029	 0,185087071204936 
1030	 0,184741814365968 
1031	 0,180626734364055 
1032	 0,179987794973915 
1033	 0,18258251808788 
1034	 0,184837581909047 
1035	 0,187611331306371 
1036	 0,189119074980656 
1037	 0,182404541952609 
1038	 0,178354456490582 
1039	 0,181539979998903 
1040	 0,186940894417322 
1041	 0,187261542762472 
1042	 0,178906589182198 
1043	 0,182446533751462 
1044	 0,190412933450093 
1045	 0,188787313874645 
1046	 0,1777899393801 
1047	 0,167380690493445 
1048	 0,181752242752472 
1049	 0,187194599264673 
1050	 0,179204082085752 
1051	 0,182653073588615 
1052	 0,184614149250692 
1053	 0,180239452339899 
1054	 0,179489256968523 
1055	 0,181216922071626 
1056	 0,183944699451843 
1057	 0,188819922142206 
1058	 0,19186500610448 
1059	 0,188229425328131 
1060	 0,183066926240358 
1061	 0,180533473359435 
1062	 0,187137567690509 
1063	 0,189462375385023 
1064	 0,186249594179556 
1065	 0,188832967766651 
1066	 0,192257803861529 
1067	 0,194096986100709 
1068	 0,195108868114794 
1069	 0,190888380736233 
1070	 0,179630257551857 
1071	 0,171648675472078 
1072	 0,17105853242198 
1073	 0,180015079557065 
1074	 0,188349029878029 
1075	 0,193800835040948 
