Wavelength	PENFOUL00335.asd
325	 0,321463953895782 
326	 0,314258091857816 
327	 0,223081406906497 
328	 0,111260577810452 
329	 0,173468993247075 
330	 0,268383552781685 
331	 0,255090607247756 
332	 0,303877656245695 
333	 0,39831299751539 
334	 0,380038370804708 
335	 0,291236013086732 
336	 0,184772794464287 
337	 0,205848931882949 
338	 0,242729086355726 
339	 0,19026490111173 
340	 0,168392743719227 
341	 0,168582459647523 
342	 0,147765960532804 
343	 0,124926341372709 
344	 0,112669657561474 
345	 0,149427428451038 
346	 0,172533513357122 
347	 0,129921592216207 
348	 0,149343490519926 
349	 0,20530768797425 
350	 0,186343990425095 
351	 0,162561938392772 
352	 0,159806923523503 
353	 0,166594779148323 
354	 0,173283491795565 
355	 0,172826090056788 
356	 0,159031970784931 
357	 0,143974568233452 
358	 0,171469552661432 
359	 0,180177352461307 
360	 0,152866356326906 
361	 0,164507046658739 
362	 0,188208546638415 
363	 0,172023525689304 
364	 0,143908838241065 
365	 0,121378697286954 
366	 0,15081103495118 
367	 0,18259716250588 
368	 0,186313767457809 
369	 0,177009391992091 
370	 0,170992206195136 
371	 0,195326020884231 
372	 0,194349953966177 
373	 0,165675557177604 
374	 0,174575249142673 
375	 0,193019275018017 
376	 0,201578223713867 
377	 0,205562496313181 
378	 0,198765926530334 
379	 0,163878139949582 
380	 0,151549646180747 
381	 0,173645670237716 
382	 0,18353627634736 
383	 0,182760515836071 
384	 0,175658450075333 
385	 0,169228739965684 
386	 0,164625536779105 
387	 0,157073970944226 
388	 0,161749387686157 
389	 0,179581803310908 
390	 0,183586231893357 
391	 0,182973181078434 
392	 0,190677494649925 
393	 0,18289981326696 
394	 0,165334911354128 
395	 0,16888991558041 
396	 0,17186487824575 
397	 0,164490314009766 
398	 0,162260194824804 
399	 0,167321003981019 
400	 0,18105585257568 
401	 0,178189072230175 
402	 0,161636361571787 
403	 0,169115073560306 
404	 0,176056873676976 
405	 0,167649276030438 
406	 0,167826837559604 
407	 0,173484294020072 
408	 0,171866249371255 
409	 0,167744205599476 
410	 0,163557969797841 
411	 0,162845729467743 
412	 0,165325270726887 
413	 0,170083079860013 
414	 0,168532398664183 
415	 0,164190808339567 
416	 0,170724019378728 
417	 0,175907579258795 
418	 0,175176991272191 
419	 0,173809364884822 
420	 0,170438066782492 
421	 0,162565574990547 
422	 0,162921666761474 
423	 0,170317576310359 
424	 0,170453582747762 
425	 0,167926381394417 
426	 0,165860819869294 
427	 0,166150873925478 
428	 0,166319744274463 
429	 0,16082712178523 
430	 0,160440857156765 
431	 0,166260136434306 
432	 0,168554513104616 
433	 0,167569520885496 
434	 0,164299747729806 
435	 0,164063833834689 
436	 0,166920099001052 
437	 0,170684435347076 
438	 0,171944521112397 
439	 0,169857347090743 
440	 0,169747790673121 
441	 0,169641507300923 
442	 0,166480202537756 
443	 0,164560817030031 
444	 0,164863637501386 
445	 0,166904592471101 
446	 0,169146450107688 
447	 0,170398720083462 
448	 0,170071882967642 
449	 0,168648090291092 
450	 0,166865499726133 
451	 0,167953600894841 
452	 0,17194567738807 
453	 0,174129831226557 
454	 0,174743499381076 
455	 0,174239919153252 
456	 0,172789517915843 
457	 0,170689660062583 
458	 0,167951655270744 
459	 0,16732605913991 
460	 0,169484954778418 
461	 0,170182380851817 
462	 0,17028415021873 
463	 0,171497766233907 
464	 0,172822826769632 
465	 0,173366214055328 
466	 0,171049035339678 
467	 0,168076275197971 
468	 0,166221174788847 
469	 0,167304126199928 
470	 0,16961146059156 
471	 0,169048069851617 
472	 0,170653305212791 
473	 0,174635925532605 
474	 0,174579138965323 
475	 0,172664088672316 
476	 0,171405178085135 
477	 0,170319289197832 
478	 0,16967989036309 
479	 0,170325795967447 
480	 0,170553305067885 
481	 0,169661685387771 
482	 0,168928308196311 
483	 0,168732359323396 
484	 0,169360047245567 
485	 0,170497426207076 
486	 0,171844433623925 
487	 0,173181911831825 
488	 0,173092907165633 
489	 0,170823251577007 
490	 0,17040059412159 
491	 0,171042525656126 
492	 0,16934776764237 
493	 0,167629920255253 
494	 0,166767638357088 
495	 0,166766854110515 
496	 0,167267351738076 
497	 0,167845790427498 
498	 0,167566729068576 
499	 0,166843093940356 
500	 0,167452127798712 
501	 0,169098653777938 
502	 0,171267373332797 
503	 0,171492712890651 
504	 0,170613451241345 
505	 0,170664176127182 
506	 0,170536555775636 
507	 0,170206221903825 
508	 0,170878109249002 
509	 0,171217035521146 
510	 0,170113567610696 
511	 0,169928265783491 
512	 0,170569569824835 
513	 0,170483757735725 
514	 0,170908498794989 
515	 0,172078688745793 
516	 0,171972817329129 
517	 0,171690085837938 
518	 0,17306369873763 
519	 0,172870083268772 
520	 0,171375046795068 
521	 0,172862568579484 
522	 0,173511715966092 
523	 0,170928157556994 
524	 0,17101783221547 
525	 0,172885241849071 
526	 0,172410090553098 
527	 0,171894560880662 
528	 0,172093450452012 
529	 0,173116119893168 
530	 0,173442360384718 
531	 0,171410260546863 
532	 0,171067615837182 
533	 0,17243499761851 
534	 0,172563703104221 
535	 0,172036399015941 
536	 0,171290387454091 
537	 0,171044308248428 
538	 0,171372337918604 
539	 0,172254779501201 
540	 0,172745029468112 
541	 0,172480472779386 
542	 0,171406159786332 
543	 0,170736095877037 
544	 0,171580781357283 
545	 0,172411239136646 
546	 0,172901844791487 
547	 0,173236248441743 
548	 0,173065147422215 
549	 0,172411558968114 
550	 0,172600229045916 
551	 0,173183178611494 
552	 0,173244076906559 
553	 0,173127146856572 
554	 0,172947984006382 
555	 0,172747105226979 
556	 0,172940234964712 
557	 0,173752107103142 
558	 0,173549829880469 
559	 0,172619430656351 
560	 0,172435700308901 
561	 0,17222454349242 
562	 0,17187071210237 
563	 0,172454442207423 
564	 0,173024276068002 
565	 0,172234166738866 
566	 0,17165215015219 
567	 0,171663999065273 
568	 0,172045492243063 
569	 0,172516602447193 
570	 0,172858635716727 
571	 0,173063088995513 
572	 0,173220963666346 
573	 0,173501922227035 
574	 0,174010315296794 
575	 0,17476540745435 
576	 0,17554334111877 
577	 0,176433669145637 
578	 0,17755661035269 
579	 0,178898094661831 
580	 0,180105775943387 
581	 0,180185392629229 
582	 0,180019001741475 
583	 0,1802377110588 
584	 0,181518363294707 
585	 0,182669793361625 
586	 0,181379357138834 
587	 0,181036157145824 
588	 0,182282000579931 
589	 0,182854586423239 
590	 0,183330722342106 
591	 0,184257448381629 
592	 0,184124036493278 
593	 0,183285511474408 
594	 0,183446551636047 
595	 0,183835080992253 
596	 0,184137490047424 
597	 0,184645228405617 
598	 0,185058029827024 
599	 0,18490684668004 
600	 0,184824176710677 
601	 0,184802989416374 
602	 0,184041146415232 
603	 0,183345513587144 
604	 0,183328611191899 
605	 0,1831668918932 
606	 0,182940584936716 
607	 0,183325063444759 
608	 0,183031357624006 
609	 0,18193821237128 
610	 0,182527125592398 
611	 0,183116972519765 
612	 0,18142763719331 
613	 0,180220070154382 
614	 0,180033035521818 
615	 0,180210657785507 
616	 0,180364526339755 
617	 0,180227400488259 
618	 0,180013585471633 
619	 0,179867191101182 
620	 0,18003475238548 
621	 0,18000733953699 
622	 0,179679002729652 
623	 0,179484903231656 
624	 0,179186235827063 
625	 0,178558394810717 
626	 0,178861601321354 
627	 0,179772785023972 
628	 0,179542893390748 
629	 0,17932196276871 
630	 0,179722223426221 
631	 0,180673888523228 
632	 0,181614796556626 
633	 0,181704036973386 
634	 0,181254054604703 
635	 0,180731181450272 
636	 0,18147692570642 
637	 0,182692154238438 
638	 0,183621648635425 
639	 0,184145323999075 
640	 0,18437584595409 
641	 0,184701568796446 
642	 0,185015265693022 
643	 0,18531375928452 
644	 0,185720367505347 
645	 0,186175670098622 
646	 0,186595681768264 
647	 0,186416448181066 
648	 0,185773136392566 
649	 0,18563316494757 
650	 0,185580427293791 
651	 0,185307980201569 
652	 0,184683520219354 
653	 0,183966643873821 
654	 0,183732912076299 
655	 0,183459609270293 
656	 0,182851640960373 
657	 0,181394927073488 
658	 0,179992085906904 
659	 0,179570653993017 
660	 0,178973942830858 
661	 0,178123118926731 
662	 0,177522965392622 
663	 0,177114566684855 
664	 0,176777570223995 
665	 0,17593401742358 
666	 0,174712290947652 
667	 0,173369330887353 
668	 0,172844692538471 
669	 0,173102375246065 
670	 0,172754227345409 
671	 0,172417587357527 
672	 0,172560151062923 
673	 0,172378453263487 
674	 0,171876403115962 
675	 0,171223976794016 
676	 0,171491038527771 
677	 0,172704728011537 
678	 0,172479952891996 
679	 0,17184170070756 
680	 0,172224126379743 
681	 0,172199429614413 
682	 0,171843229648427 
683	 0,172399541075865 
684	 0,173145745083936 
685	 0,173705851958395 
686	 0,174623542723652 
687	 0,17594961272922 
688	 0,177649723143834 
689	 0,179524833209942 
690	 0,181640636550395 
691	 0,184533665728946 
692	 0,187884772130302 
693	 0,191416036113595 
694	 0,195562712938225 
695	 0,200431874704085 
696	 0,206102671121593 
697	 0,21222869705325 
698	 0,218717192679678 
699	 0,2261046552458 
700	 0,23406033070284 
701	 0,242111580263051 
702	 0,25006370696828 
703	 0,257861898471257 
704	 0,26565961176472 
705	 0,273474154891906 
706	 0,281261121964394 
707	 0,288468281181183 
708	 0,295448941065256 
709	 0,303090933566847 
710	 0,309830318460168 
711	 0,315366906358357 
712	 0,320775934114607 
713	 0,326247817278908 
714	 0,331855761377934 
715	 0,336972661815069 
716	 0,341544278565946 
717	 0,345843829536194 
718	 0,34963437101646 
719	 0,352919718539422 
720	 0,356353859642056 
721	 0,359527032718896 
722	 0,361850916192482 
723	 0,364613706717489 
724	 0,367753298059464 
725	 0,370002589954569 
726	 0,371730045444362 
727	 0,373244884565076 
728	 0,375053631253708 
729	 0,376980331463445 
730	 0,378598276041145 
731	 0,379766015568689 
732	 0,380631693969098 
733	 0,382092104821994 
734	 0,383454147978853 
735	 0,384121844306927 
736	 0,384834488678748 
737	 0,385786189904586 
738	 0,387183042646036 
739	 0,388188832642056 
740	 0,388555595325372 
741	 0,388981570960001 
742	 0,389510691160895 
743	 0,390119862992955 
744	 0,390717429559077 
745	 0,391290628902009 
746	 0,39192499341962 
747	 0,392363711953729 
748	 0,392540193439105 
749	 0,393056201283592 
750	 0,393694030366825 
751	 0,394016482656524 
752	 0,394165462480699 
753	 0,394241131758084 
754	 0,394416042787229 
755	 0,394857709994827 
756	 0,395614268734021 
757	 0,395939196437717 
758	 0,396017092903635 
759	 0,396476503191607 
760	 0,396898109029708 
761	 0,397217115381168 
762	 0,397814546376914 
763	 0,398208502545696 
764	 0,397978881626998 
765	 0,397970703513916 
766	 0,398295093753795 
767	 0,398832153661931 
768	 0,399076393270804 
769	 0,398934653669838 
770	 0,399251553166779 
771	 0,399754398786946 
772	 0,400035185418375 
773	 0,400108956045615 
774	 0,400138959273169 
775	 0,400632948841535 
776	 0,401106902394409 
777	 0,401300850076748 
778	 0,401335494958514 
779	 0,401351804780443 
780	 0,401531189090994 
781	 0,40175064758934 
782	 0,401966456312459 
783	 0,402117692256578 
784	 0,402405303046886 
785	 0,402894374994649 
786	 0,402962164499715 
787	 0,402812900794487 
788	 0,402952686377463 
789	 0,403299464364257 
790	 0,40371692485273 
791	 0,403753969707492 
792	 0,403585409887305 
793	 0,40340197221966 
794	 0,403521695914547 
795	 0,403825889701742 
796	 0,403902542198188 
797	 0,404231953918337 
798	 0,404841183507813 
799	 0,405175836906388 
800	 0,405110213644517 
801	 0,40462750738101 
802	 0,404715579416389 
803	 0,405373168761711 
804	 0,406185307433691 
805	 0,406384866328749 
806	 0,405916182308456 
807	 0,406375101622638 
808	 0,407114895036552 
809	 0,407327310257772 
810	 0,407349843602879 
811	 0,407287436670682 
812	 0,407187881530175 
813	 0,407449822183326 
814	 0,408116766080161 
815	 0,408291574517916 
816	 0,408338128346724 
817	 0,408767608094995 
818	 0,408830600318103 
819	 0,408741352947737 
820	 0,409669801337411 
821	 0,410412417714816 
822	 0,410458349721794 
823	 0,410615948804033 
824	 0,410805210662835 
825	 0,410827819333055 
826	 0,411132711230723 
827	 0,411555791806317 
828	 0,411199944048819 
829	 0,4110227645254 
830	 0,411435078237709 
831	 0,41148347409314 
832	 0,411596842008916 
833	 0,412478194316081 
834	 0,412686738088808 
835	 0,412288007457081 
836	 0,412735791925581 
837	 0,413218544433432 
838	 0,413359663477677 
839	 0,413746469256581 
840	 0,414252664901295 
841	 0,414617929875769 
842	 0,41480818262793 
843	 0,414904852904425 
844	 0,415246689297298 
845	 0,415408864955407 
846	 0,415284583155732 
847	 0,415885995648682 
848	 0,416584813988391 
849	 0,416365807377269 
850	 0,415982876962844 
851	 0,41582035802982 
852	 0,416514768196948 
853	 0,416851339856867 
854	 0,416323428765388 
855	 0,416422490857645 
856	 0,416828648775611 
857	 0,41687964507572 
858	 0,416815597405441 
859	 0,416808018504241 
860	 0,417241705273242 
861	 0,41766735331155 
862	 0,417836264462426 
863	 0,417810208930434 
864	 0,417882837085026 
865	 0,418410713421427 
866	 0,418874238798413 
867	 0,419151706427303 
868	 0,419301586689663 
869	 0,419419555065528 
870	 0,419538673770908 
871	 0,419452831069763 
872	 0,419531263071015 
873	 0,420205464913894 
874	 0,420703452723055 
875	 0,420980488397108 
876	 0,421505645251736 
877	 0,421763350927663 
878	 0,421584956254713 
879	 0,421284335885406 
880	 0,421236483509431 
881	 0,421779155606088 
882	 0,422225087083402 
883	 0,422509920053773 
884	 0,42289366868943 
885	 0,42320441815239 
886	 0,423373920205868 
887	 0,423352662483803 
888	 0,423407404069646 
889	 0,423793337178241 
890	 0,424534579839987 
891	 0,425193164912582 
892	 0,424856993750375 
893	 0,424311164654335 
894	 0,423975615106184 
895	 0,424308893538445 
896	 0,424956995976181 
897	 0,425546259580557 
898	 0,425566342678192 
899	 0,425337925263175 
900	 0,425562580525403 
901	 0,426140906043438 
902	 0,426882979322962 
903	 0,427340026630057 
904	 0,426962830591598 
905	 0,42571032765144 
906	 0,425903957027599 
907	 0,426596896603508 
908	 0,426043963958707 
909	 0,426276615518821 
910	 0,427299561690244 
911	 0,427578066157812 
912	 0,427775208620576 
913	 0,428115604845348 
914	 0,428068609591092 
915	 0,428078612726361 
916	 0,428615610651398 
917	 0,428229368982026 
918	 0,427477947204372 
919	 0,428581595419876 
920	 0,429206508804419 
921	 0,428750304940084 
922	 0,428565285768512 
923	 0,428431805128206 
924	 0,428160968895408 
925	 0,428169693936181 
926	 0,428280714828243 
927	 0,428074857379089 
928	 0,427751871135365 
929	 0,42733978961957 
930	 0,426600976101518 
931	 0,426568952577189 
932	 0,427588433079784 
933	 0,427624212709265 
934	 0,427034976047686 
935	 0,426595888370105 
936	 0,426345594926954 
937	 0,426206089176828 
938	 0,425733729742457 
939	 0,426011677282551 
940	 0,426951246316235 
941	 0,425950196154326 
942	 0,42457320901339 
943	 0,424336148212963 
944	 0,424446381391963 
945	 0,424745339427755 
946	 0,425193669091172 
947	 0,425089739834843 
948	 0,424198390856119 
949	 0,42239135710023 
950	 0,421500967364095 
951	 0,422151060917398 
952	 0,420822128407995 
953	 0,419000342328836 
954	 0,418859371811989 
955	 0,418662948241295 
956	 0,418250769744607 
957	 0,418101881322254 
958	 0,418318156748777 
959	 0,418616768062241 
960	 0,417663411031975 
961	 0,416263250773096 
962	 0,41519257798441 
963	 0,415039570712849 
964	 0,415442139532694 
965	 0,415694552500526 
966	 0,415439402616132 
967	 0,414921172556356 
968	 0,415368486040876 
969	 0,415280849698615 
970	 0,414256832544229 
971	 0,413857176834344 
972	 0,413507030474633 
973	 0,412867158957676 
974	 0,415324725825707 
975	 0,418366539343637 
976	 0,416685709400166 
977	 0,415016811119602 
978	 0,415132690800657 
979	 0,418408739086904 
980	 0,420380649231586 
981	 0,419209565829651 
982	 0,419027577724639 
983	 0,41911815971164 
984	 0,418491639488871 
985	 0,41820246010156 
986	 0,417891190733629 
987	 0,416371136541591 
988	 0,41754733661793 
989	 0,4208944641108 
990	 0,420266042872085 
991	 0,419982313220867 
992	 0,421838290464553 
993	 0,42211962856214 
994	 0,42181974283758 
995	 0,42222720210168 
996	 0,422252956737322 
997	 0,422263807122844 
998	 0,423227675738726 
999	 0,42509889766271 
1000	 0,427360133594221 
1001	 0,428713702014938 
1002	 0,427837721670116 
1003	 0,425271882721041 
1004	 0,428292748765843 
1005	 0,43087086086958 
1006	 0,42724761337677 
1007	 0,4262587188642 
1008	 0,427656490535895 
1009	 0,428192724194348 
1010	 0,430164774153911 
1011	 0,432884811094732 
1012	 0,432381861663648 
1013	 0,432653287655411 
1014	 0,434912948578598 
1015	 0,435895120028048 
1016	 0,435168496628964 
1017	 0,433300922447485 
1018	 0,437847429650691 
1019	 0,442156672136693 
1020	 0,435306424536307 
1021	 0,433507601577054 
1022	 0,437319189154959 
1023	 0,436956880037072 
1024	 0,434706542715653 
1025	 0,432326614778386 
1026	 0,434570379310722 
1027	 0,439654564981793 
1028	 0,445128021741287 
1029	 0,443987399878859 
1030	 0,440943301775195 
1031	 0,442184884258891 
1032	 0,44092583840729 
1033	 0,439515647753626 
1034	 0,444894503244474 
1035	 0,452159676523054 
1036	 0,456092333805131 
1037	 0,442781728125494 
1038	 0,435480260496615 
1039	 0,442762745041721 
1040	 0,447245783165302 
1041	 0,44609726420088 
1042	 0,439678127708687 
1043	 0,445789298030927 
1044	 0,455055656997844 
1045	 0,451845959040487 
1046	 0,449408434289944 
1047	 0,448957924032941 
1048	 0,446401979930346 
1049	 0,446940388705157 
1050	 0,450309201469323 
1051	 0,449067003110999 
1052	 0,449008852506751 
1053	 0,451965227599832 
1054	 0,450538160278637 
1055	 0,451867372104298 
1056	 0,460276798149698 
1057	 0,45396379738152 
1058	 0,444752707936363 
1059	 0,45152961304245 
1060	 0,451802345529283 
1061	 0,449373311391343 
1062	 0,464647424356581 
1063	 0,466864215215447 
1064	 0,453641661992286 
1065	 0,450883803453407 
1066	 0,453994360987298 
1067	 0,45891499253038 
1068	 0,455213046779323 
1069	 0,448012381619683 
1070	 0,442621613519875 
1071	 0,446597746927892 
1072	 0,453617010617913 
1073	 0,454442748490644 
1074	 0,45869763495253 
1075	 0,459594788337401 
