Wavelength	PENFOUL00255.asd
325	 0,127571917022073 
326	 0,312251681940986 
327	 0,349250150778489 
328	 0,217487603822872 
329	 0,333515902881592 
330	 0,391212053822849 
331	 0,207350330173717 
332	 0,166917908773532 
333	 0,203624952805981 
334	 0,181126938639753 
335	 0,162680322628342 
336	 0,162226030954607 
337	 0,166151763087105 
338	 0,153699223226792 
339	 0,115562516119399 
340	 0,110695671368143 
341	 0,12346292624792 
342	 0,120407119179538 
343	 8,07822349795327E-02 
344	 0,014650277936626 
345	 4,62168141024488E-02 
346	 8,24013649422721E-02 
347	 3,34473042707443E-02 
348	 4,75110073887435E-02 
349	 0,107155372186485 
350	 0,127333747376769 
351	 0,082332460853519 
352	-1,61723017911278E-02 
353	 1,37577836830207E-02 
354	 7,87043191850087E-02 
355	 7,58818428926329E-02 
356	 7,80891182829426E-02 
357	 9,44510002867415E-02 
358	 0,114941852508854 
359	 0,104274700142029 
360	 5,75245031044941E-02 
361	 5,38109579137247E-02 
362	 7,41004900415328E-02 
363	 0,074838007424474 
364	 0,073047888895255 
365	 6,81123825989007E-02 
366	 4,38932445603197E-02 
367	 3,85510519397503E-02 
368	 6,68001593514775E-02 
369	 5,32481463173505E-02 
370	 3,05652737931772E-02 
371	 7,69263902493796E-02 
372	 7,81693075543926E-02 
373	 0,027733593296478 
374	 0,053998480977698 
375	 7,39817376052581E-02 
376	 3,50762096768724E-02 
377	 5,29889426247333E-02 
378	 9,32113482857757E-02 
379	 4,85239296062484E-02 
380	 1,88787425124604E-02 
381	 3,27671952859547E-02 
382	 3,88042704183412E-02 
383	 0,044558659234655 
384	 5,81986937346546E-02 
385	 4,76527779447811E-02 
386	 2,38533715453903E-02 
387	 2,84157056962618E-02 
388	 0,039069443830008 
389	 0,047206395202508 
390	 5,92652456687881E-02 
391	 6,64450297884015E-02 
392	 5,79876498494404E-02 
393	 4,65215542954313E-02 
394	 3,78500482968601E-02 
395	 3,95710420457164E-02 
396	 3,90590666386455E-02 
397	 3,14268759980469E-02 
398	 3,22259196375826E-02 
399	 0,039521582085392 
400	 4,87623944938945E-02 
401	 4,37840924781135E-02 
402	 2,92226399830144E-02 
403	 0,039772249820311 
404	 4,98353303012465E-02 
405	 4,34999707518534E-02 
406	 3,91303704097467E-02 
407	 3,79748672841854E-02 
408	 3,74581018427639E-02 
409	 3,74950965296847E-02 
410	 3,76632746420611E-02 
411	 3,64114913314264E-02 
412	 3,78397178429283E-02 
413	 4,48436681494776E-02 
414	 3,65093204397357E-02 
415	 2,20479302155647E-02 
416	 3,63929792180913E-02 
417	 4,51524649142864E-02 
418	 0,038064014938898 
419	 4,38455583128294E-02 
420	 5,04207214481349E-02 
421	 4,03399252191637E-02 
422	 3,53851033640476E-02 
423	 3,81729447569661E-02 
424	 3,89324328166157E-02 
425	 3,95309815002139E-02 
426	 4,06365879941456E-02 
427	 3,87481371087928E-02 
428	 0,035041852470403 
429	 3,21622834765924E-02 
430	 3,00771355127642E-02 
431	 2,96849628004696E-02 
432	 0,034405980944798 
433	 3,82319434709464E-02 
434	 3,62398698867047E-02 
435	 3,42979857939332E-02 
436	 3,45383919303256E-02 
437	 3,96067713440577E-02 
438	 4,38373367986316E-02 
439	 4,45376995160241E-02 
440	 4,20777850577901E-02 
441	 0,038425947930454 
442	 3,59717423150866E-02 
443	 3,69468789598427E-02 
444	 3,97484728966998E-02 
445	 3,68465667213099E-02 
446	 3,48804557047991E-02 
447	 3,76287999563796E-02 
448	 4,03545046047037E-02 
449	 4,13001137480659E-02 
450	 3,81752057338089E-02 
451	 3,75449805154121E-02 
452	 4,05499189035719E-02 
453	 4,19683251142921E-02 
454	 4,26666011702048E-02 
455	 4,34729820451656E-02 
456	 4,10635265481925E-02 
457	 0,036667189018232 
458	 0,034753364812082 
459	 3,43535104703774E-02 
460	 3,50995425227646E-02 
461	 3,64839707407846E-02 
462	 3,83359192422357E-02 
463	 0,040567565991083 
464	 4,09458172379716E-02 
465	 3,99679720493064E-02 
466	 4,15146296868097E-02 
467	 0,04293431594612 
468	 4,25245037586324E-02 
469	 4,14820145142882E-02 
470	 4,06307628458894E-02 
471	 4,12145020554724E-02 
472	 4,15766229386599E-02 
473	 4,14113597000617E-02 
474	 4,19898420307092E-02 
475	 4,30265563713185E-02 
476	 4,40759042653709E-02 
477	 4,27860192533455E-02 
478	 4,02223050525388E-02 
479	 4,05944245101992E-02 
480	 4,11406025425541E-02 
481	 4,06508397416903E-02 
482	 4,01439147757062E-02 
483	 3,97506511288608E-02 
484	 3,94428379175256E-02 
485	 4,03952129623596E-02 
486	 4,23876988028118E-02 
487	 4,36748574367754E-02 
488	 4,39942936610649E-02 
489	 4,32260488296041E-02 
490	 4,19655955133017E-02 
491	 4,11324396389734E-02 
492	 4,25698525596883E-02 
493	 4,33171898832175E-02 
494	 4,25370262375103E-02 
495	 4,19414325117813E-02 
496	 4,20478812859363E-02 
497	 4,32462329814413E-02 
498	 4,39494140984431E-02 
499	 4,37326834475894E-02 
500	 4,23911588845589E-02 
501	 0,042065525565261 
502	 4,36841459497023E-02 
503	 4,41659514877922E-02 
504	 4,35699398839841E-02 
505	 4,27237256080317E-02 
506	 4,16677936752855E-02 
507	 4,11836957083626E-02 
508	 4,43917431703429E-02 
509	 4,67197856612068E-02 
510	 4,43327924369128E-02 
511	 4,39121604342463E-02 
512	 4,53867981667512E-02 
513	 4,49916440980535E-02 
514	 4,51074756079286E-02 
515	 4,64377544059551E-02 
516	 4,68676384353488E-02 
517	 4,66724804847479E-02 
518	 4,65053778753155E-02 
519	 4,70962810698012E-02 
520	 4,80911298099211E-02 
521	 4,74007862896154E-02 
522	 4,67226261250902E-02 
523	 4,72203889531538E-02 
524	 4,71965334693555E-02 
525	 4,68378436344718E-02 
526	 4,70724859105807E-02 
527	 4,78457556274026E-02 
528	 4,88720978450931E-02 
529	 4,88524936175608E-02 
530	 0,04814957216619 
531	 0,047307495684969 
532	 4,73613604797684E-02 
533	 4,83810740354067E-02 
534	 4,98936749108831E-02 
535	 5,05969254914656E-02 
536	 4,98263099019231E-02 
537	 4,91226069476177E-02 
538	 4,90006551914223E-02 
539	 5,00347324271875E-02 
540	 5,04388628551794E-02 
541	 4,98327293892102E-02 
542	 4,92943836218654E-02 
543	 4,94443117458641E-02 
544	 5,07409500845311E-02 
545	 5,14386980990937E-02 
546	 5,12871948787702E-02 
547	 5,06915700111684E-02 
548	 5,00855781627206E-02 
549	 4,99227718949104E-02 
550	 5,13601900296362E-02 
551	 5,31212221878243E-02 
552	 5,31400917250942E-02 
553	 5,22974561723875E-02 
554	 5,12743212737026E-02 
555	 5,14880502161833E-02 
556	 5,27113008683992E-02 
557	 5,45244529760407E-02 
558	 5,46750632711723E-02 
559	 5,35549558856771E-02 
560	 5,31322497511799E-02 
561	 5,32815255524022E-02 
562	 5,39074418124194E-02 
563	 5,43138368351316E-02 
564	 5,42015295130424E-02 
565	 5,32877472058951E-02 
566	 5,29707963556088E-02 
567	 0,053509136511185 
568	 5,44291381895854E-02 
569	 5,48890578664333E-02 
570	 5,43994076672779E-02 
571	 5,43477477903348E-02 
572	 5,48176198798107E-02 
573	 5,56155014744333E-02 
574	 0,055459236070719 
575	 5,43524871233765E-02 
576	 5,50264086441222E-02 
577	 0,056306875775032 
578	 5,66764079559621E-02 
579	 5,76072779473886E-02 
580	 5,88152962023845E-02 
581	 5,84531203634079E-02 
582	 5,80151115105893E-02 
583	 5,83641937749021E-02 
584	 5,90442874949176E-02 
585	 0,059547173015297 
586	 5,90305299666666E-02 
587	 5,92397648541064E-02 
588	 6,03124124230605E-02 
589	 6,02213524542954E-02 
590	 6,01482070120482E-02 
591	 6,11671315691269E-02 
592	 6,09628066795823E-02 
593	 5,99180163672988E-02 
594	 6,02406768829246E-02 
595	 6,10291885124032E-02 
596	 6,17483795160969E-02 
597	 6,16745308373368E-02 
598	 0,06119514805362 
599	 6,09994862061987E-02 
600	 6,12455488592044E-02 
601	 6,17381464458939E-02 
602	 6,14343304517614E-02 
603	 6,11844338919843E-02 
604	 6,16089671550418E-02 
605	 6,15470729567888E-02 
606	 6,11893193835922E-02 
607	 6,15907308247666E-02 
608	 6,13472652746367E-02 
609	 6,03629366528508E-02 
610	 6,14040511373237E-02 
611	 6,24920799965888E-02 
612	 6,09635579625283E-02 
613	 5,98602493793696E-02 
614	 5,97920889609323E-02 
615	 6,00590761585113E-02 
616	 6,04674911686728E-02 
617	 6,08472172099924E-02 
618	 6,11936222771339E-02 
619	 6,13022911256991E-02 
620	 6,07276721828833E-02 
621	 6,06437822445162E-02 
622	 6,11531078264758E-02 
623	 0,060598147646215 
624	 6,00012266602826E-02 
625	 6,04848198693754E-02 
626	 6,13319545566978E-02 
627	 6,19299846326687E-02 
628	 6,08950884399235E-02 
629	 6,03763324143323E-02 
630	 6,13193329016768E-02 
631	 6,16650020407563E-02 
632	 0,061652662951283 
633	 6,20899273089118E-02 
634	 6,22963455409093E-02 
635	 6,21946725688814E-02 
636	 6,21845870755591E-02 
637	 6,25579994595634E-02 
638	 6,34961068115825E-02 
639	 6,42405433492504E-02 
640	 6,45476366598027E-02 
641	 0,064229766050965 
642	 6,37638192773426E-02 
643	 6,34510619012643E-02 
644	 6,35323862595321E-02 
645	 6,39208847463074E-02 
646	 6,44657102505044E-02 
647	 6,49181941658048E-02 
648	 6,50690298384202E-02 
649	 6,43954593443738E-02 
650	 6,43396078303707E-02 
651	 6,56114865262614E-02 
652	 6,52363656030099E-02 
653	 0,063782227343834 
654	 6,32575549921786E-02 
655	 6,31768645474241E-02 
656	 0,06325539948421 
657	 6,25070031588717E-02 
658	 6,20949971758996E-02 
659	 6,31882528457115E-02 
660	 6,32114141027514E-02 
661	 6,20983942543921E-02 
662	 6,12716126092678E-02 
663	 6,08691421975933E-02 
664	 6,08959545569768E-02 
665	 6,05219314015114E-02 
666	 5,98157753407222E-02 
667	 5,90111712330121E-02 
668	 5,88699081770885E-02 
669	 5,94196751040374E-02 
670	 0,059837703675445 
671	 5,99316264381565E-02 
672	 5,96026050887455E-02 
673	 0,059455073658843 
674	 5,94357110586514E-02 
675	 5,90116051493786E-02 
676	 5,92012939288492E-02 
677	 6,00959897808712E-02 
678	 5,99444742423229E-02 
679	 5,94848884861865E-02 
680	 0,059753582365795 
681	 6,02319554207847E-02 
682	 6,06908530592684E-02 
683	 6,07844312948612E-02 
684	 6,08169270199244E-02 
685	 6,10650760463069E-02 
686	 6,21792201190201E-02 
687	 6,34691391750898E-02 
688	 0,063561091223311 
689	 6,38780096390009E-02 
690	 6,48562277264388E-02 
691	 6,62874229390066E-02 
692	 0,067821666579009 
693	 6,91796536116914E-02 
694	 7,09511917117747E-02 
695	 7,30597859361472E-02 
696	 0,074957803638178 
697	 7,73700207139785E-02 
698	 8,04427098847426E-02 
699	 8,31498143637392E-02 
700	 8,58372195941469E-02 
701	 8,90704543406209E-02 
702	 9,22566844761943E-02 
703	 9,52930627289336E-02 
704	 9,83901634379174E-02 
705	 0,10147726244333 
706	 0,1044986550689 
707	 0,107390341637743 
708	 0,110134014782539 
709	 0,112717870994959 
710	 0,115231771799702 
711	 0,117642337825192 
712	 0,119668522900096 
713	 0,121597572418926 
714	 0,123664240902926 
715	 0,125188437937662 
716	 0,126341598596937 
717	 0,127886988844174 
718	 0,129404691494332 
719	 0,130744965246411 
720	 0,132107213157255 
721	 0,133324883768767 
722	 0,134175547266682 
723	 0,135113064459361 
724	 0,136225872569409 
725	 0,137469385520242 
726	 0,138255841009102 
727	 0,138356695984203 
728	 0,139153986147225 
729	 0,140187785281219 
730	 0,140261629063164 
731	 0,140576106147289 
732	 0,141397322880535 
733	 0,142264478595929 
734	 0,142790742521646 
735	 0,142710833949487 
736	 0,142945461197844 
737	 0,143509126177963 
738	 0,143961325984668 
739	 0,144525989224156 
740	 0,145163711820977 
741	 0,145321096427797 
742	 0,145238187411221 
743	 0,145251735192399 
744	 0,145525951710783 
745	 0,146081464228437 
746	 0,14691400985747 
747	 0,147315430399526 
748	 0,147003537024827 
749	 0,147028374120195 
750	 0,14729066925657 
751	 0,147422045259436 
752	 0,147707853862112 
753	 0,148133408278842 
754	 0,148430578200656 
755	 0,148490708970285 
756	 0,1483129396385 
757	 0,148654925363479 
758	 0,149298131526857 
759	 0,149582806633105 
760	 0,149604401240017 
761	 0,149480311468588 
762	 0,149704816780352 
763	 0,14987364161997 
764	 0,149635336884458 
765	 0,149965388562406 
766	 0,150687980758686 
767	 0,150877112370668 
768	 0,150980503299359 
769	 0,151141423788592 
770	 0,151156313237719 
771	 0,151341515721968 
772	 0,152053983597556 
773	 0,152110070446679 
774	 0,151638162282755 
775	 0,151867136643567 
776	 0,152326256941493 
777	 0,152693997336435 
778	 0,152467574813732 
779	 0,152112501402573 
780	 0,152380830488207 
781	 0,152838082321828 
782	 0,153323834343152 
783	 0,153722174025333 
784	 0,154018808931134 
785	 0,154197971757205 
786	 0,154211918303142 
787	 0,154229059723708 
788	 0,154565876141593 
789	 0,154624628036911 
790	 0,154402875192146 
791	 0,154716134110713 
792	 0,154943888769 
793	 0,154651220423959 
794	 0,154900164528178 
795	 0,155497472853523 
796	 0,155665513317872 
797	 0,15578182822355 
798	 0,155901622969502 
799	 0,155726048974344 
800	 0,155635194954083 
801	 0,155965790218029 
802	 0,156141031154603 
803	 0,156152590721891 
804	 0,156211879584104 
805	 0,156637892395034 
806	 0,157346612754168 
807	 0,15713118915864 
808	 0,156869322425047 
809	 0,157530682917565 
810	 0,157625184583168 
811	 0,157215481377048 
812	 0,157335587184561 
813	 0,157543558108076 
814	 0,157684138528479 
815	 0,157881826113009 
816	 0,158128160369074 
817	 0,15839895787934 
818	 0,158491882844181 
819	 0,158479576697021 
820	 0,158719047464356 
821	 0,158974721433645 
822	 0,159140810586017 
823	 0,159326432157789 
824	 0,159442066455515 
825	 0,159370863990378 
826	 0,159828541549748 
827	 0,160559195197973 
828	 0,16019296198173 
829	 0,1598593976404 
830	 0,160047087189972 
831	 0,159658030904572 
832	 0,159506302457012 
833	 0,160812099266405 
834	 0,1611304297086 
835	 0,16034377395049 
836	 0,160185598211002 
837	 0,160263045623255 
838	 0,16041885834772 
839	 0,160901981413874 
840	 0,161384798104459 
841	 0,161393932408218 
842	 0,161556007307299 
843	 0,161851805515244 
844	 0,161657620314944 
845	 0,161499589084387 
846	 0,161651891103465 
847	 0,161838061683423 
848	 0,161940802466089 
849	 0,161848204757224 
850	 0,161529133794807 
851	 0,161225814152544 
852	 0,161746556111146 
853	 0,162082920736405 
854	 0,161803424770946 
855	 0,162099182243146 
856	 0,162446003872514 
857	 0,161970774282715 
858	 0,161935930114625 
859	 0,162416684775975 
860	 0,162650529680555 
861	 0,162642361863003 
862	 0,162451363259978 
863	 0,162500019652244 
864	 0,162872296169386 
865	 0,163588469528795 
866	 0,163781013301155 
867	 0,163520392445682 
868	 0,163741448921232 
869	 0,163873295724953 
870	 0,163721919865194 
871	 0,163809359042661 
872	 0,163925545374151 
873	 0,16377377093805 
874	 0,163719201857778 
875	 0,163823746021788 
876	 0,163987176459028 
877	 0,164366637648546 
878	 0,164876187659921 
879	 0,164761826461296 
880	 0,164344401294891 
881	 0,164064943816595 
882	 0,164305772762518 
883	 0,164806946066936 
884	 0,164641684716811 
885	 0,164555759690191 
886	 0,16476690259918 
887	 0,16494679072613 
888	 0,165084309550732 
889	 0,165208572985409 
890	 0,165691042335214 
891	 0,166152853886696 
892	 0,165561105300608 
893	 0,16564748601326 
894	 0,166576442972807 
895	 0,166403382790034 
896	 0,165922940685941 
897	 0,165847606965617 
898	 0,166264271848983 
899	 0,166713582634343 
900	 0,166354837902193 
901	 0,165986364191401 
902	 0,165882060541908 
903	 0,166142273282698 
904	 0,166197443205229 
905	 0,165834077900387 
906	 0,166373196944458 
907	 0,167016710656781 
908	 0,166438468357504 
909	 0,166924506981426 
910	 0,16829307970739 
911	 0,168181507880383 
912	 0,167896928847494 
913	 0,168008938144714 
914	 0,167959711427162 
915	 0,168225914292742 
916	 0,169257176419447 
917	 0,168730646374139 
918	 0,167364360220484 
919	 0,16825686800854 
920	 0,168624658014166 
921	 0,16792903428894 
922	 0,168512167616727 
923	 0,168801858279907 
924	 0,167634753506885 
925	 0,167774775354759 
926	 0,168554615285401 
927	 0,167987445542476 
928	 0,167438954582993 
929	 0,167285915522912 
930	 0,167383489975012 
931	 0,16781046807999 
932	 0,168561709302682 
933	 0,169498772334134 
934	 0,169917500603758 
935	 0,16903359506299 
936	 0,168631365865437 
937	 0,168838065373953 
938	 0,168700414303902 
939	 0,168992570814835 
940	 0,169508758644597 
941	 0,167686754393793 
942	 0,166359538738092 
943	 0,167898777506613 
944	 0,168489865240782 
945	 0,168164621276784 
946	 0,168186971239676 
947	 0,168434481884161 
948	 0,168734840206194 
949	 0,168559760949623 
950	 0,167862475344306 
951	 0,166761658888682 
952	 0,16601909838739 
953	 0,16585132890445 
954	 0,166353279922793 
955	 0,16678607195434 
956	 0,166738043874174 
957	 0,165517306990882 
958	 0,165342198859227 
959	 0,166617779576208 
960	 0,167448771016182 
961	 0,166794863547166 
962	 0,164496954494366 
963	 0,165765238396651 
964	 0,168155419444647 
965	 0,166899777668569 
966	 0,165291648328369 
967	 0,164642113450545 
968	 0,166521809807135 
969	 0,16745438861516 
970	 0,166299640883627 
971	 0,166037481706918 
972	 0,165908275691356 
973	 0,165267363447596 
974	 0,166855893562578 
975	 0,168730763443448 
976	 0,166713199906669 
977	 0,165868855110762 
978	 0,167038168733005 
979	 0,167859288387977 
980	 0,169044656873049 
981	 0,17038633588101 
982	 0,169144982468458 
983	 0,167244296504682 
984	 0,166869161183168 
985	 0,167465199647505 
986	 0,16830231770993 
987	 0,168062243346334 
988	 0,169240205263558 
989	 0,171455966199286 
990	 0,170757552138713 
991	 0,170131468031994 
992	 0,171001657901945 
993	 0,17176484408263 
994	 0,171902225957005 
995	 0,171125788589421 
996	 0,170914514609201 
997	 0,171694881863604 
998	 0,173827877209943 
999	 0,172740536530011 
1000	 0,169279919033346 
1001	 0,171359051654044 
1002	 0,174150785220418 
1003	 0,175294600495428 
1004	 0,176735559331053 
1005	 0,176588960773372 
1006	 0,173469992323194 
1007	 0,173788935032357 
1008	 0,175502049708594 
1009	 0,172999783834727 
1010	 0,171947332568438 
1011	 0,172867313475119 
1012	 0,172144500861423 
1013	 0,172112579647618 
1014	 0,174039808768799 
1015	 0,179736193423653 
1016	 0,181293972040742 
1017	 0,173668943847088 
1018	 0,174271128388227 
1019	 0,178437618804516 
1020	 0,17552124728346 
1021	 0,173351621220792 
1022	 0,174252881548369 
1023	 0,180204158167043 
1024	 0,180580682888538 
1025	 0,174244404572454 
1026	 0,173916746889011 
1027	 0,178194617653644 
1028	 0,184689566672593 
1029	 0,185905957749931 
1030	 0,183427750811436 
1031	 0,180552339009615 
1032	 0,179903002161116 
1033	 0,181434672351559 
1034	 0,183690000596581 
1035	 0,183577973236834 
1036	 0,180891200597955 
1037	 0,178607502081072 
1038	 0,176148968488053 
1039	 0,175222727616919 
1040	 0,18572945950628 
1041	 0,190301306831592 
1042	 0,178089483944845 
1043	 0,187169663823352 
1044	 0,201176429262954 
1045	 0,191862550934722 
1046	 0,182688615296583 
1047	 0,181411768544792 
1048	 0,194701026781152 
1049	 0,192496096953258 
1050	 0,174288352884457 
1051	 0,177133397350652 
1052	 0,18356995664953 
1053	 0,184701776906785 
1054	 0,183967418184279 
1055	 0,183709955523703 
1056	 0,186050617448067 
1057	 0,191523912340904 
1058	 0,195750671313078 
1059	 0,193312677367861 
1060	 0,187438965298744 
1061	 0,184990777684388 
1062	 0,199972162293827 
1063	 0,202368098565893 
1064	 0,190168155727189 
1065	 0,190790622433904 
1066	 0,196970478429329 
1067	 0,202626810687436 
1068	 0,19391617284444 
1069	 0,18525853271238 
1070	 0,186985793123105 
1071	 0,191189136821292 
1072	 0,193660801815387 
1073	 0,19054223196114 
1074	 0,185827641672248 
1075	 0,185170959597726 
