Wavelength	PENFOUL00163.asd
325	 0,249568075003927 
326	 0,346423557768713 
327	 0,303726839918731 
328	 0,137435672834775 
329	 0,111803443476468 
330	 0,170314833052705 
331	 0,214303957553213 
332	 0,17158589528124 
333	 0,102809485376071 
334	 0,261313550268618 
335	 0,250997019873756 
336	 4,17495665236394E-02 
337	 4,42344445531722E-02 
338	 0,107573249366195 
339	 7,54387870067464E-02 
340	 0,128624649191169 
341	 0,201723939082726 
342	 0,125404468870072 
343	 7,83190904829125E-02 
344	 0,10732355415505 
345	 0,104126574668109 
346	 6,13331047316967E-02 
347	-5,93387575057249E-03 
348	 4,50720237761564E-03 
349	 6,41681410774832E-02 
350	 7,61529087758498E-02 
351	 5,28579321874214E-02 
352	 1,17935520114071E-02 
353	 5,33248390380624E-02 
354	 0,100998573466476 
355	 8,03634330763461E-02 
356	 7,48335088328535E-02 
357	 8,44398614817919E-02 
358	 5,84755419873103E-02 
359	 2,93486875422904E-02 
360	 1,17313453725064E-02 
361	 2,12545584793581E-02 
362	 4,30038510911425E-02 
363	 0,050594826933104 
364	 4,73943204433985E-02 
365	 3,87056642847377E-02 
366	 3,91845416573293E-02 
367	 5,09109194012091E-02 
368	 6,92179231424031E-02 
369	 4,73193277310924E-02 
370	 1,75672233529373E-02 
371	 5,03381007507327E-02 
372	 4,88951882541067E-02 
373	 8,11780641400274E-03 
374	 3,71598886050312E-02 
375	 6,41430670041784E-02 
376	 4,32869879510446E-02 
377	 4,35876644101134E-02 
378	 5,78181344838155E-02 
379	 4,70812628199187E-02 
380	 4,06238317091121E-02 
381	 4,53810509150679E-02 
382	 4,09434467887657E-02 
383	 4,52850673025521E-02 
384	 7,26501712314808E-02 
385	 0,056794841383924 
386	 0,015532361813835 
387	 2,64795334303849E-02 
388	 3,87366427103484E-02 
389	 3,63069391974191E-02 
390	 0,047565315999826 
391	 6,14829047750134E-02 
392	 6,23697990644471E-02 
393	 0,051850988405181 
394	 3,62496691283976E-02 
395	 3,09930703719676E-02 
396	 2,99222832932825E-02 
397	 3,01595833956484E-02 
398	 3,49454695132904E-02 
399	 4,10409921077637E-02 
400	 4,43022205752196E-02 
401	 3,64264091848916E-02 
402	 0,022928018713322 
403	 3,29762941074251E-02 
404	 4,30267105169664E-02 
405	 3,81432506371787E-02 
406	 3,19841838825229E-02 
407	 2,79513365144905E-02 
408	 2,92199065615308E-02 
409	 3,20790778025809E-02 
410	 3,35742607624999E-02 
411	 2,63090653239278E-02 
412	 2,15249505906354E-02 
413	 2,91595197255575E-02 
414	 2,96613203209398E-02 
415	 2,45173832855398E-02 
416	 0,02725314048184 
417	 2,98552560668773E-02 
418	 2,97068580621256E-02 
419	 3,17176640352291E-02 
420	 3,23878423516373E-02 
421	 2,69256414610317E-02 
422	 2,92877029476849E-02 
423	 3,71965731657035E-02 
424	 3,16587433125157E-02 
425	 2,53298116655323E-02 
426	 2,56035362425546E-02 
427	 2,72361898376134E-02 
428	 2,77005690399637E-02 
429	 2,33493717657448E-02 
430	 2,25831271540156E-02 
431	 2,65914563800997E-02 
432	 0,02883000792407 
433	 2,91530183420156E-02 
434	 2,77920045356227E-02 
435	 2,52180960029264E-02 
436	 2,33635204429721E-02 
437	 2,68273873655117E-02 
438	 2,88366810429563E-02 
439	 2,74283251387923E-02 
440	 2,92918947760455E-02 
441	 3,11649683497311E-02 
442	 2,82883175183964E-02 
443	 2,71193333415383E-02 
444	 2,83369129091956E-02 
445	 2,87257034589999E-02 
446	 2,88630208502242E-02 
447	 2,89088691409215E-02 
448	 2,72042190746879E-02 
449	 2,53166665907473E-02 
450	 0,026403324424475 
451	 2,92000178154606E-02 
452	 0,032278436387314 
453	 3,14693012773279E-02 
454	 0,029848611293852 
455	 0,030302175434587 
456	 2,93560036325789E-02 
457	 2,73987577487073E-02 
458	 2,68601183995789E-02 
459	 2,77763918721562E-02 
460	 2,96557114348032E-02 
461	 2,91616532991524E-02 
462	 2,81639060239346E-02 
463	 2,95878010719645E-02 
464	 2,75672090293232E-02 
465	 2,38622940743946E-02 
466	 3,00684694978287E-02 
467	 3,51839876704462E-02 
468	 3,23788781596498E-02 
469	 2,93684352614636E-02 
470	 2,81414876388686E-02 
471	 3,03753896087223E-02 
472	 3,13711798017514E-02 
473	 0,030172181473749 
474	 3,09605433669084E-02 
475	 3,07771805629254E-02 
476	 0,026768442669548 
477	 2,44593434276425E-02 
478	 2,51396757556471E-02 
479	 2,92876697940279E-02 
480	 3,18788084858707E-02 
481	 0,030879724843642 
482	 3,10468430401209E-02 
483	 3,17451589210353E-02 
484	 3,12565204323167E-02 
485	 3,12171759953085E-02 
486	 3,16271795638631E-02 
487	 3,07789328354824E-02 
488	 3,00011070057098E-02 
489	 3,02594870165002E-02 
490	 3,02310939636027E-02 
491	 3,01980450502285E-02 
492	 3,15723979410553E-02 
493	 3,14955399462416E-02 
494	 2,96032926280876E-02 
495	 2,98490741563246E-02 
496	 3,06327272598611E-02 
497	 2,98566173779438E-02 
498	 3,00025729697366E-02 
499	 3,09672027975763E-02 
500	 3,06349511672385E-02 
501	 3,08343461953595E-02 
502	 0,032182867227695 
503	 3,09496028060206E-02 
504	 2,87025761142184E-02 
505	 2,89464929601648E-02 
506	 2,91083372499468E-02 
507	 2,90064512086049E-02 
508	 3,13202813632884E-02 
509	 0,033117951177142 
510	 3,18823814561461E-02 
511	 3,09700404816394E-02 
512	 3,09932132590947E-02 
513	 3,16247152158952E-02 
514	 3,28072193229611E-02 
515	 3,40914391328937E-02 
516	 3,32262871469885E-02 
517	 0,031771860886584 
518	 3,21514133286926E-02 
519	 3,27206273880867E-02 
520	 3,32139604255254E-02 
521	 3,44400038900605E-02 
522	 3,47800139803774E-02 
523	 3,32819392762334E-02 
524	 3,29462091221224E-02 
525	 3,35177980175232E-02 
526	 0,033195041824835 
527	 3,34158814014622E-02 
528	 3,43800555697876E-02 
529	 3,46801608752474E-02 
530	 3,43922818595035E-02 
531	 3,37439992497684E-02 
532	 3,34908419495423E-02 
533	 3,37521098440806E-02 
534	 3,43036243956645E-02 
535	 3,45119827607665E-02 
536	 3,40545509249663E-02 
537	 3,35933786062499E-02 
538	 3,36521926938064E-02 
539	 3,51225779145656E-02 
540	 3,55876754965709E-02 
541	 3,45998984667157E-02 
542	 3,39546437434135E-02 
543	 3,39074491088543E-02 
544	 0,034564439978123 
545	 3,49552463537336E-02 
546	 3,50579765457075E-02 
547	 3,55844305960715E-02 
548	 3,54994215700427E-02 
549	 3,46285748939351E-02 
550	 3,55212143357239E-02 
551	 3,68639687276493E-02 
552	 3,62149094005916E-02 
553	 3,55033745020376E-02 
554	 3,52709062752914E-02 
555	 3,52437366535515E-02 
556	 3,56403256485335E-02 
557	 3,65453823584038E-02 
558	 3,67210782755791E-02 
559	 3,62950368807467E-02 
560	 3,61700756410916E-02 
561	 3,60896446651522E-02 
562	 3,60628780907267E-02 
563	 3,66504912842221E-02 
564	 3,69848448393687E-02 
565	 3,58907392123155E-02 
566	 3,50616573140623E-02 
567	 3,50186367913425E-02 
568	 3,58447185240099E-02 
569	 3,66505031457446E-02 
570	 3,68357896426418E-02 
571	 3,71516815740988E-02 
572	 3,75786297302201E-02 
573	 3,78738962570226E-02 
574	 3,77476438454175E-02 
575	 3,73877768164318E-02 
576	 0,038296568835648 
577	 3,96008674245537E-02 
578	 4,02110085244391E-02 
579	 4,07604834103747E-02 
580	 4,13014054867578E-02 
581	 4,16159925272022E-02 
582	 4,17687068142239E-02 
583	 4,18755937855055E-02 
584	 4,24792281838688E-02 
585	 4,32582515716872E-02 
586	 4,35316006860844E-02 
587	 4,37988244228257E-02 
588	 4,41702714392398E-02 
589	 4,43783157322703E-02 
590	 4,48756558114529E-02 
591	 4,59851992334672E-02 
592	 4,56738057956737E-02 
593	 4,44803982752811E-02 
594	 4,50323735629199E-02 
595	 4,53596134282808E-02 
596	 0,044784225649242 
597	 4,51624080731802E-02 
598	 4,58894882479335E-02 
599	 4,57860657176001E-02 
600	 0,045679416016112 
601	 4,57268939153227E-02 
602	 4,56609445782895E-02 
603	 4,55494408755919E-02 
604	 4,54131329776481E-02 
605	 4,47332576091264E-02 
606	 0,043953490725617 
607	 4,44162016756925E-02 
608	 0,04448204570901 
609	 4,38383491360632E-02 
610	 4,46282375707056E-02 
611	 0,045476196648705 
612	 4,45142707710774E-02 
613	 4,33713972105144E-02 
614	 4,26608302709487E-02 
615	 4,28869635727279E-02 
616	 4,34299577222398E-02 
617	 4,37638225620027E-02 
618	 4,31344411380607E-02 
619	 0,04228783112515 
620	 4,29259928332339E-02 
621	 4,34659771950101E-02 
622	 4,34080455421213E-02 
623	 4,31159803526215E-02 
624	 4,26521237550127E-02 
625	 4,20987608079594E-02 
626	 4,22612467707837E-02 
627	 4,29810691418216E-02 
628	 4,32947578084728E-02 
629	 4,34770734734041E-02 
630	 4,36878123933981E-02 
631	 4,41811097669493E-02 
632	 4,47000450904972E-02 
633	 4,48000300113407E-02 
634	 4,46159527717453E-02 
635	 0,044404699110257 
636	 4,49353241565275E-02 
637	 0,045807195605416 
638	 4,66185406347074E-02 
639	 4,71210698441924E-02 
640	 0,047214718389932 
641	 4,67023077786183E-02 
642	 4,66593855793712E-02 
643	 4,73865262556288E-02 
644	 4,76071107494343E-02 
645	 4,75838538615539E-02 
646	 4,78125428221899E-02 
647	 4,81257231853499E-02 
648	 4,83307199848485E-02 
649	 4,78212589455303E-02 
650	 4,76829023149952E-02 
651	 4,84391903765426E-02 
652	 4,77129829493746E-02 
653	 0,046250654840001 
654	 4,62866638946037E-02 
655	 4,62864564250151E-02 
656	 4,57583675677376E-02 
657	 4,47156376918951E-02 
658	 4,41737639336908E-02 
659	 4,50741326703106E-02 
660	 4,45440520018601E-02 
661	 4,27390509096304E-02 
662	 4,19160894555316E-02 
663	 4,15378853364964E-02 
664	 4,13045742137823E-02 
665	 4,08215286951807E-02 
666	 4,01393454342228E-02 
667	 3,94084679016861E-02 
668	 3,90347094694873E-02 
669	 3,90498547942294E-02 
670	 3,90369675645734E-02 
671	 3,89914232040958E-02 
672	 3,89005102892949E-02 
673	 0,038630806674103 
674	 3,81961025500089E-02 
675	 3,74443424858253E-02 
676	 3,79459457411441E-02 
677	 3,97154853972164E-02 
678	 3,92257905748043E-02 
679	 3,81592459884975E-02 
680	 3,88275379534289E-02 
681	 3,93985231755124E-02 
682	 3,96075268920296E-02 
683	 0,040001700221267 
684	 4,03333071453252E-02 
685	 4,05326855605941E-02 
686	 4,11831028982621E-02 
687	 4,21518993686733E-02 
688	 4,30403066666258E-02 
689	 4,42508272686319E-02 
690	 4,59083617641717E-02 
691	 0,048005827538048 
692	 5,01926660828385E-02 
693	 5,21937354487753E-02 
694	 5,47256520941564E-02 
695	 5,76225243240718E-02 
696	 5,99693562998762E-02 
697	 6,32039703537729E-02 
698	 6,76964016496186E-02 
699	 7,18287094274489E-02 
700	 7,57154614065551E-02 
701	 7,97160062669128E-02 
702	 8,37581257131163E-02 
703	 0,08784116005764 
704	 9,20238909930916E-02 
705	 9,61207378252679E-02 
706	 0,100003804324261 
707	 0,103716188996729 
708	 0,107212506965322 
709	 0,110386881512334 
710	 0,113608875987017 
711	 0,116776711282237 
712	 0,118894114770826 
713	 0,120780838124206 
714	 0,123205447821043 
715	 0,12552087327546 
716	 0,127622831660336 
717	 0,129630629810793 
718	 0,131203059814892 
719	 0,132300043185075 
720	 0,133592545423157 
721	 0,135025508784495 
722	 0,136441252373862 
723	 0,137578515441809 
724	 0,138532647856705 
725	 0,13994884694875 
726	 0,14095608275456 
727	 0,141155242904137 
728	 0,142036794817698 
729	 0,143103511959367 
730	 0,143074448595212 
731	 0,143228084088268 
732	 0,143897512124292 
733	 0,144773442385459 
734	 0,145281955108826 
735	 0,145016733093267 
736	 0,14533491118069 
737	 0,146161369045973 
738	 0,146682825413146 
739	 0,147063849892548 
740	 0,147344125193906 
741	 0,147571218825573 
742	 0,147806764886665 
743	 0,148109104761536 
744	 0,148222092711586 
745	 0,148277535821386 
746	 0,148893029817647 
747	 0,14932241255904 
748	 0,149258439532056 
749	 0,149659949192142 
750	 0,15014787107794 
751	 0,14996661191808 
752	 0,149935864814712 
753	 0,150200296495586 
754	 0,150399114940255 
755	 0,150502066486894 
756	 0,150526119429977 
757	 0,15083515275015 
758	 0,151342663945612 
759	 0,151809830358519 
760	 0,151836948939762 
761	 0,151488611222705 
762	 0,151799342950927 
763	 0,152154748679279 
764	 0,15195460436016 
765	 0,151789731517535 
766	 0,151819226442256 
767	 0,152172876947191 
768	 0,152426272419067 
769	 0,152433479127527 
770	 0,152494143499271 
771	 0,152659674247682 
772	 0,152947887033178 
773	 0,152761386902533 
774	 0,152341419041324 
775	 0,152789129639469 
776	 0,153579593544547 
777	 0,15428697655219 
778	 0,154054968893577 
779	 0,15346893372826 
780	 0,153514614697909 
781	 0,153947582559165 
782	 0,154478420155888 
783	 0,154290016544547 
784	 0,154005812232897 
785	 0,154071203838642 
786	 0,154485280445007 
787	 0,154953389106033 
788	 0,154958769592324 
789	 0,15490494844884 
790	 0,154922103234982 
791	 0,155014051313044 
792	 0,155089874055484 
793	 0,155073733277168 
794	 0,154943689452356 
795	 0,154887141744136 
796	 0,155308539360669 
797	 0,155730287166007 
798	 0,15594753367899 
799	 0,155896168722671 
800	 0,155804066196131 
801	 0,155883067975418 
802	 0,155918158360418 
803	 0,15594078260477 
804	 0,15614186219056 
805	 0,156276277220018 
806	 0,156278173756376 
807	 0,156322106739281 
808	 0,156447290087996 
809	 0,156668856112559 
810	 0,156709964511197 
811	 0,156606884647855 
812	 0,156591584877006 
813	 0,156825145456505 
814	 0,157244127071933 
815	 0,156957855663327 
816	 0,156678057057171 
817	 0,157305390333331 
818	 0,157683365883372 
819	 0,157682359388012 
820	 0,157747145310184 
821	 0,1578085912906 
822	 0,157863375238578 
823	 0,15802080827391 
824	 0,158118791509399 
825	 0,157948209127786 
826	 0,158353181737319 
827	 0,159075061009075 
828	 0,158637794048158 
829	 0,158198651801221 
830	 0,15832269100393 
831	 0,158375709915317 
832	 0,158529115386774 
833	 0,159091959334566 
834	 0,158796094463018 
835	 0,157860915645292 
836	 0,158044398524726 
837	 0,158454249484598 
838	 0,158614430477629 
839	 0,158763094911487 
840	 0,158953470634033 
841	 0,159235451427763 
842	 0,159376622529123 
843	 0,159331382059439 
844	 0,159177707801267 
845	 0,158929111959605 
846	 0,15870722871418 
847	 0,159257413602768 
848	 0,159818023129251 
849	 0,159233611174937 
850	 0,158991767173045 
851	 0,159313704144196 
852	 0,159668546588366 
853	 0,159633347064406 
854	 0,159126747805971 
855	 0,159432613629259 
856	 0,159889589096601 
857	 0,159415706535344 
858	 0,158981906818822 
859	 0,1588729730155 
860	 0,15915151358952 
861	 0,159596855030806 
862	 0,159997124906816 
863	 0,159878213731521 
864	 0,159803535274468 
865	 0,160540327034039 
866	 0,160511958916211 
867	 0,159947133781006 
868	 0,160793247552627 
869	 0,16128082025135 
870	 0,160691086493748 
871	 0,160155905603699 
872	 0,159943753213881 
873	 0,160222466897195 
874	 0,16038676320179 
875	 0,160392102768132 
876	 0,160529613754645 
877	 0,160879988456563 
878	 0,161336185235324 
879	 0,16109584349364 
880	 0,160735291902197 
881	 0,160898151474967 
882	 0,160330546393291 
883	 0,15963764188321 
884	 0,161158630045632 
885	 0,162052414187891 
886	 0,161556259288724 
887	 0,161598098376038 
888	 0,161842159634347 
889	 0,161903914452824 
890	 0,162335185420857 
891	 0,162716115515267 
892	 0,161895665983694 
893	 0,161541208374905 
894	 0,161949545746743 
895	 0,161712932435264 
896	 0,161648386658618 
897	 0,162340738804777 
898	 0,162751320255659 
899	 0,162771281740083 
900	 0,162519508407561 
901	 0,162149428279817 
902	 0,161906155264837 
903	 0,162454154028447 
904	 0,162685396757006 
905	 0,162052126300727 
906	 0,162016595925884 
907	 0,162432398394954 
908	 0,162825009367709 
909	 0,163013454298511 
910	 0,163016744549228 
911	 0,163127518726976 
912	 0,163174796183057 
913	 0,163133751495502 
914	 0,163315633741556 
915	 0,163583522129937 
916	 0,163720200018922 
917	 0,162915944536152 
918	 0,161983974972951 
919	 0,163555415833126 
920	 0,163806859064077 
921	 0,16216467530308 
922	 0,162858734764272 
923	 0,163607352936364 
924	 0,1625419763965 
925	 0,162120006724897 
926	 0,162572407171212 
927	 0,163658570319089 
928	 0,163360666764236 
929	 0,161805129307875 
930	 0,161728645241087 
931	 0,162415475635385 
932	 0,163320702847817 
933	 0,163944276584812 
934	 0,163927247708631 
935	 0,162991246769208 
936	 0,16298286639652 
937	 0,163746381335937 
938	 0,163485751805222 
939	 0,163684533084408 
940	 0,164438731695367 
941	 0,163406522277563 
942	 0,162032789270902 
943	 0,161746324386043 
944	 0,162220840194354 
945	 0,162916676154847 
946	 0,162931771266517 
947	 0,163132688158985 
948	 0,163237216265389 
949	 0,161273214056653 
950	 0,159808936922202 
951	 0,160141223120786 
952	 0,160057925139098 
953	 0,159854444154328 
954	 0,160139397785431 
955	 0,160653921240835 
956	 0,160718281383428 
957	 0,158537035942675 
958	 0,157977434775295 
959	 0,159692638625596 
960	 0,159986740364961 
961	 0,159063028319457 
962	 0,157611650118715 
963	 0,159295912489426 
964	 0,161790442524434 
965	 0,160856188031418 
966	 0,159034252825514 
967	 0,157825139207672 
968	 0,159952888916215 
969	 0,16113272374148 
970	 0,159681705049171 
971	 0,157495764984553 
972	 0,156457034772343 
973	 0,158002511080234 
974	 0,160091715268107 
975	 0,161093208045626 
976	 0,158876681296605 
977	 0,158332092650149 
978	 0,160138565730027 
979	 0,161422851340864 
980	 0,162528875776224 
981	 0,163283437457193 
982	 0,162295141680225 
983	 0,161091203075732 
984	 0,161201122380729 
985	 0,160376123913471 
986	 0,159382602244671 
987	 0,160377360661452 
988	 0,162248587515217 
989	 0,163628342331618 
990	 0,160910687806657 
991	 0,159243085358912 
992	 0,160948314626045 
993	 0,161945155852669 
994	 0,162313809446273 
995	 0,162469525708013 
996	 0,1620132717546 
997	 0,161942024935736 
998	 0,164284291931483 
999	 0,164759634677992 
1000	 0,163526860501676 
1001	 0,166018847473086 
1002	 0,16772616079296 
1003	 0,166830778401021 
1004	 0,167082103652062 
1005	 0,167256253508439 
1006	 0,166128623735803 
1007	 0,166896624005801 
1008	 0,167513993397627 
1009	 0,163462301514118 
1010	 0,162697828986723 
1011	 0,165646262692979 
1012	 0,166158323780123 
1013	 0,166505484351795 
1014	 0,167354623746944 
1015	 0,167706255281426 
1016	 0,166672772279483 
1017	 0,164213094208343 
1018	 0,166280112357261 
1019	 0,170234763012649 
1020	 0,170930132766909 
1021	 0,168747233709053 
1022	 0,165452313477315 
1023	 0,165662262985912 
1024	 0,167514114222279 
1025	 0,16982813440705 
1026	 0,170179831899097 
1027	 0,17000126376683 
1028	 0,170175369374805 
1029	 0,169179619055415 
1030	 0,169148412012619 
1031	 0,172266466991443 
1032	 0,171269919199057 
1033	 0,169772559670537 
1034	 0,177889563109934 
1035	 0,182236921161814 
1036	 0,178574550536079 
1037	 0,165259525486271 
1038	 0,158258712465208 
1039	 0,164906561456372 
1040	 0,180107942228367 
1041	 0,185010506440207 
1042	 0,168487029481904 
1043	 0,171603731888524 
1044	 0,183367792213875 
1045	 0,181257263386 
1046	 0,17456707101807 
1047	 0,16937483599659 
1048	 0,176137393934265 
1049	 0,17842780996837 
1050	 0,17310312592033 
1051	 0,168563003038298 
1052	 0,167049310367182 
1053	 0,168857608657446 
1054	 0,167463868844948 
1055	 0,168833203347316 
1056	 0,177132569961953 
1057	 0,178671202681277 
1058	 0,178457251124545 
1059	 0,185343687182216 
1060	 0,181417161490962 
1061	 0,172407400856402 
1062	 0,180432714952984 
1063	 0,186993467028782 
1064	 0,186301599119811 
1065	 0,177619666094749 
1066	 0,174268520881177 
1067	 0,179400097639358 
1068	 0,172362566198819 
1069	 0,170381739633749 
1070	 0,183265026315402 
1071	 0,182286768145697 
1072	 0,172500385711077 
1073	 0,166365333341157 
1074	 0,174934310272803 
1075	 0,185563722576178 
