Wavelength	PENFOUL00031.asd
325	 0,347699621839094 
326	 0,412694681358267 
327	 0,393321271054236 
328	 0,296328854546308 
329	 0,214769446878705 
330	 0,16178335119149 
331	 0,167945755115324 
332	 0,224061384416167 
333	 0,295808718967813 
334	 0,198118464903489 
335	 0,173865688146761 
336	 0,250383536687681 
337	 0,193551157185052 
338	 0,123728048342845 
339	 0,16476401199962 
340	 0,193146445512575 
341	 0,207599007046237 
342	 0,249402032167637 
343	 0,243716428034539 
344	 0,176696113377541 
345	 0,152519597439936 
346	 0,142398578859826 
347	 0,112641276474499 
348	 0,151540542693523 
349	 0,220663203193703 
350	 0,189091705792564 
351	 0,164007905446328 
352	 0,183173077353142 
353	 0,206491525535769 
354	 0,209138777064926 
355	 0,176497642619388 
356	 0,167873225867882 
357	 0,189468590775746 
358	 0,219567689102445 
359	 0,228458846828728 
360	 0,209246673457218 
361	 0,19905435048699 
362	 0,202943699355534 
363	 0,220639124215105 
364	 0,208012220051738 
365	 0,174400990899866 
366	 0,192340879004008 
367	 0,220283049456969 
368	 0,2291592210172 
369	 0,20496144340089 
370	 0,17669357226649 
371	 0,201067829224759 
372	 0,199106459272181 
373	 0,168622187168565 
374	 0,208641395659279 
375	 0,235754791273412 
376	 0,19805654133625 
377	 0,180502692808524 
378	 0,189299733797119 
379	 0,202137746999022 
380	 0,210850624737004 
381	 0,211361768546611 
382	 0,212613906279961 
383	 0,21289237297807 
384	 0,209944765711906 
385	 0,196572582481708 
386	 0,182196538863981 
387	 0,193461374786441 
388	 0,20200525242613 
389	 0,198502515098768 
390	 0,19959585475686 
391	 0,204007815906973 
392	 0,208503186371986 
393	 0,207853072867026 
394	 0,20311927037788 
395	 0,20001953832345 
396	 0,20048816618115 
397	 0,205141180864821 
398	 0,210536671220051 
399	 0,213413299972902 
400	 0,210113430306606 
401	 0,205059756325624 
402	 0,201254553584303 
403	 0,204124035573932 
404	 0,210591584293305 
405	 0,217555782817016 
406	 0,217662306341128 
407	 0,21279125994986 
408	 0,208146387606232 
409	 0,209410925506862 
410	 0,215307484353861 
411	 0,212295969711676 
412	 0,206799963796825 
413	 0,205460404192824 
414	 0,205589559113422 
415	 0,206416204291212 
416	 0,206809383939429 
417	 0,208891682391055 
418	 0,212775426760145 
419	 0,214801430171759 
420	 0,213660622217963 
421	 0,20806870411009 
422	 0,211304788814608 
423	 0,220216808747047 
424	 0,21300046846976 
425	 0,206250301604467 
426	 0,209160937636822 
427	 0,210918068131652 
428	 0,209500450449608 
429	 0,20342493902288 
430	 0,20103619047371 
431	 0,204435211731937 
432	 0,21011623289574 
433	 0,214924234759867 
434	 0,216257819423137 
435	 0,212291887426139 
436	 0,206720358416035 
437	 0,209320567478831 
438	 0,211962255877822 
439	 0,211894971702789 
440	 0,21400050675764 
441	 0,215394493151281 
442	 0,212040214854313 
443	 0,211015246384538 
444	 0,212721727012345 
445	 0,21239790273461 
446	 0,211700454725527 
447	 0,211608926926623 
448	 0,211248698513038 
449	 0,211284364735866 
450	 0,213277845497627 
451	 0,213945915618798 
452	 0,212737990525619 
453	 0,212126044915539 
454	 0,212384728378946 
455	 0,213527903555257 
456	 0,213492178917304 
457	 0,212288521477985 
458	 0,210639284282572 
459	 0,211187966231472 
460	 0,21465981996475 
461	 0,217734226690666 
462	 0,21902891247258 
463	 0,217212779704968 
464	 0,218377430942579 
465	 0,222049724217996 
466	 0,220680942138881 
467	 0,218796850901853 
468	 0,21916719424882 
469	 0,217909495957733 
470	 0,216321091468839 
471	 0,217967018503531 
472	 0,219797986969311 
473	 0,220444105999306 
474	 0,218808529718394 
475	 0,216613785833718 
476	 0,215657656096484 
477	 0,216710541072041 
478	 0,218530498598557 
479	 0,217208166602854 
480	 0,216255553113901 
481	 0,217091558814231 
482	 0,21737371816744 
483	 0,217293419751574 
484	 0,217518672757363 
485	 0,217312569231772 
486	 0,216820474118978 
487	 0,217043201512137 
488	 0,21838183816044 
489	 0,220707628022508 
490	 0,219347823900726 
491	 0,216091200175955 
492	 0,216532951604738 
493	 0,217596536317647 
494	 0,218223724634868 
495	 0,218373245267333 
496	 0,218604622363397 
497	 0,219543595619587 
498	 0,2189889173407 
499	 0,217240111523025 
500	 0,216342105333992 
501	 0,217369035144042 
502	 0,220410606965116 
503	 0,221071444963831 
504	 0,219964518850782 
505	 0,219051017342033 
506	 0,219770309853339 
507	 0,221880690557539 
508	 0,221851004493358 
509	 0,221670828456661 
510	 0,223211782790092 
511	 0,225268155280013 
512	 0,227030142942094 
513	 0,227013699915954 
514	 0,227474532822263 
515	 0,229105238586663 
516	 0,229476896507647 
517	 0,229172704279487 
518	 0,229315229584276 
519	 0,229632572862342 
520	 0,230215149098232 
521	 0,231713931706053 
522	 0,232415372039701 
523	 0,231225426714031 
524	 0,230331292708934 
525	 0,230222068232481 
526	 0,231210086116752 
527	 0,231882543207633 
528	 0,231676874355174 
529	 0,230854103074392 
530	 0,229938432078875 
531	 0,229489220411406 
532	 0,229651289163314 
533	 0,230201674266751 
534	 0,230420090637587 
535	 0,230329948961493 
536	 0,229988997130596 
537	 0,229840036040412 
538	 0,229795956564827 
539	 0,229541234755846 
540	 0,229505297928938 
541	 0,22976105887513 
542	 0,230021677349149 
543	 0,230137473686616 
544	 0,23000547313329 
545	 0,230181743465936 
546	 0,230665188150119 
547	 0,231245515779103 
548	 0,231134388934705 
549	 0,230275583047441 
550	 0,23133380009 
551	 0,232821419390988 
552	 0,232011070361738 
553	 0,231073817871353 
554	 0,230715202785798 
555	 0,231122906965294 
556	 0,231455058081616 
557	 0,231006595791201 
558	 0,230083739811902 
559	 0,229195293500751 
560	 0,229539182884752 
561	 0,229402673987558 
562	 0,22829744402003 
563	 0,227852517222194 
564	 0,227730851812243 
565	 0,227288236259753 
566	 0,227307512267837 
567	 0,227779863502288 
568	 0,227924098352702 
569	 0,22833099439488 
570	 0,229371796840142 
571	 0,230389790800724 
572	 0,231383948528111 
573	 0,232629774380142 
574	 0,233727262190823 
575	 0,23468867552968 
576	 0,236402031484694 
577	 0,23797753689192 
578	 0,238414924835049 
579	 0,240071998349048 
580	 0,24269031872168 
581	 0,243765346749842 
582	 0,24438750631987 
583	 0,245324991236526 
584	 0,247583281222247 
585	 0,24987821403237 
586	 0,24968350664773 
587	 0,250169018861689 
588	 0,251982755408779 
589	 0,253323180036915 
590	 0,254392361335289 
591	 0,255406411564024 
592	 0,255678432504557 
593	 0,255467992793562 
594	 0,255774180552368 
595	 0,256126144455748 
596	 0,256335359178864 
597	 0,256576254324662 
598	 0,256745355612595 
599	 0,256672697829237 
600	 0,256553560468478 
601	 0,256329574236826 
602	 0,255538487373307 
603	 0,254740788236572 
604	 0,254380711965104 
605	 0,254157266095291 
606	 0,25386818698829 
607	 0,253241415804924 
608	 0,252064963647002 
609	 0,250639087300325 
610	 0,251213837572315 
611	 0,251791397169679 
612	 0,249733162078699 
613	 0,248333830948995 
614	 0,248059084677117 
615	 0,247555380239583 
616	 0,247012232887544 
617	 0,246579639757902 
618	 0,246614618952907 
619	 0,246793811210318 
620	 0,246361969700179 
621	 0,246234483909018 
622	 0,246482986470461 
623	 0,245930610868767 
624	 0,245266465244061 
625	 0,245262602168277 
626	 0,245665825719096 
627	 0,246165962524561 
628	 0,246004583897591 
629	 0,245972209452323 
630	 0,246495388619485 
631	 0,247429704219034 
632	 0,248422015893484 
633	 0,248958427252126 
634	 0,24938462659116 
635	 0,249913287601922 
636	 0,250873132978225 
637	 0,252218442490651 
638	 0,253817623487706 
639	 0,254657140022817 
640	 0,254917565460524 
641	 0,255478538568877 
642	 0,256449264839663 
643	 0,257774706813448 
644	 0,258666310492618 
645	 0,259165156506828 
646	 0,259438121459109 
647	 0,25957715469134 
648	 0,259430671755355 
649	 0,258261554555442 
650	 0,257364688490974 
651	 0,257455741976782 
652	 0,256554049974218 
653	 0,254866821941843 
654	 0,253341559878457 
655	 0,252407249511614 
656	 0,251867063026638 
657	 0,249824729452434 
658	 0,247411728743611 
659	 0,245886038329527 
660	 0,243914006221555 
661	 0,241563049269213 
662	 0,239799562201081 
663	 0,238184556038105 
664	 0,236533541439812 
665	 0,235216902035972 
666	 0,233835662569456 
667	 0,231667859314428 
668	 0,230396443552706 
669	 0,230176975355442 
670	 0,229522203351999 
671	 0,228911811662376 
672	 0,228718617797837 
673	 0,228393374820111 
674	 0,227897283730346 
675	 0,227257684370019 
676	 0,227256587327721 
677	 0,227911060077283 
678	 0,227471463391683 
679	 0,226774302479826 
680	 0,226970862733351 
681	 0,227616623852634 
682	 0,228507745503392 
683	 0,229261258807322 
684	 0,230284055591554 
685	 0,231824982315445 
686	 0,233624700321984 
687	 0,236013568888299 
688	 0,239649798469159 
689	 0,243413781294663 
690	 0,247194235310186 
691	 0,25205174621427 
692	 0,257810267250272 
693	 0,264290250181475 
694	 0,271778127949159 
695	 0,280038244519588 
696	 0,288514613328934 
697	 0,297075210560582 
698	 0,305882953857867 
699	 0,316463695988046 
700	 0,327773155134586 
701	 0,338313531171531 
702	 0,348779991059707 
703	 0,359183671207426 
704	 0,369166755819256 
705	 0,379062755534028 
706	 0,389018222392983 
707	 0,398365327139977 
708	 0,407082309213848 
709	 0,415312673606857 
710	 0,423283432524305 
711	 0,430951951041379 
712	 0,4377768481569 
713	 0,444102640746474 
714	 0,450237773488563 
715	 0,455863383325788 
716	 0,461100134947203 
717	 0,466449756539589 
718	 0,471246378381956 
719	 0,475249688360057 
720	 0,478867766011558 
721	 0,482437242340955 
722	 0,48632762031191 
723	 0,489721032508628 
724	 0,492477875024006 
725	 0,494918648194361 
726	 0,496977374258562 
727	 0,498707377122667 
728	 0,500764231056033 
729	 0,50276572941988 
730	 0,503862623292922 
731	 0,504906987270393 
732	 0,506101489480924 
733	 0,507092048566255 
734	 0,507984489465491 
735	 0,508860851980258 
736	 0,509433547805656 
737	 0,509870055051141 
738	 0,510695786882914 
739	 0,511525768795048 
740	 0,512221360419898 
741	 0,512935611257591 
742	 0,513414892527002 
743	 0,513374992855268 
744	 0,513506431225564 
745	 0,513938970801425 
746	 0,514558180484516 
747	 0,514901635181727 
748	 0,514822411605253 
749	 0,51533137138672 
750	 0,515944984727721 
751	 0,515729079439544 
752	 0,515841673060823 
753	 0,516351245100526 
754	 0,516260378573664 
755	 0,516019462183733 
756	 0,515999977542679 
757	 0,516402406481976 
758	 0,516833484692452 
759	 0,51642191530413 
760	 0,516074945137879 
761	 0,516116092017804 
762	 0,51655332048424 
763	 0,516793966627658 
764	 0,516325607311629 
765	 0,516052548823821 
766	 0,516049870781267 
767	 0,516018023023999 
768	 0,515997668524005 
769	 0,516009406173558 
770	 0,516169814826641 
771	 0,516282369497889 
772	 0,516113711648322 
773	 0,515892689002228 
774	 0,515718124560113 
775	 0,515652348867968 
776	 0,515867687509817 
777	 0,516304006280986 
778	 0,515921807614856 
779	 0,515248760525236 
780	 0,515218268004388 
781	 0,515277954838272 
782	 0,515302939538059 
783	 0,515373837705442 
784	 0,515374136362562 
785	 0,515232180656247 
786	 0,515032991166428 
787	 0,51486935121382 
788	 0,514888625993576 
789	 0,514718975798995 
790	 0,514398510383445 
791	 0,514629774549084 
792	 0,51470288421921 
793	 0,514093509102895 
794	 0,513662238659308 
795	 0,513512594924291 
796	 0,513515217317568 
797	 0,51375506633968 
798	 0,514052306180768 
799	 0,513532710514072 
800	 0,512962482080335 
801	 0,513055971780349 
802	 0,512790142953495 
803	 0,512359772596352 
804	 0,512769782334727 
805	 0,513062179408207 
806	 0,512970926967373 
807	 0,51312985635319 
808	 0,513360730483694 
809	 0,513430238836302 
810	 0,513444949117503 
811	 0,513341281560739 
812	 0,512851573825675 
813	 0,512535052417655 
814	 0,512599114359651 
815	 0,512650217308975 
816	 0,512607332566812 
817	 0,512425181014917 
818	 0,512326398804848 
819	 0,512403087090161 
820	 0,512772052374235 
821	 0,513074991773877 
822	 0,513106157454523 
823	 0,51286224876058 
824	 0,512556152582563 
825	 0,512461704023399 
826	 0,513181537448919 
827	 0,514258416145745 
828	 0,513837756886553 
829	 0,513243831996193 
830	 0,513150523855312 
831	 0,513052712670203 
832	 0,512979669047271 
833	 0,513026405094732 
834	 0,513074722010095 
835	 0,513090808086052 
836	 0,513061812896679 
837	 0,513135360190598 
838	 0,513330590922169 
839	 0,51315832784354 
840	 0,512967890994522 
841	 0,513317592777131 
842	 0,513256517987687 
843	 0,512802791703322 
844	 0,512812998297673 
845	 0,513005832021775 
846	 0,513207210049729 
847	 0,513338435751369 
848	 0,51334538045045 
849	 0,513181343181226 
850	 0,513011316961006 
851	 0,512925707379774 
852	 0,513129559050818 
853	 0,512869076706967 
854	 0,511917357709789 
855	 0,511685809961409 
856	 0,511977223968768 
857	 0,512287507178634 
858	 0,512524564688508 
859	 0,512573374595624 
860	 0,512257548339633 
861	 0,511909880789989 
862	 0,511763984385585 
863	 0,511980051836507 
864	 0,512343909136164 
865	 0,512553712351582 
866	 0,512600349717452 
867	 0,512505050827082 
868	 0,512431197750914 
869	 0,511989505548048 
870	 0,511177573172294 
871	 0,511037608299699 
872	 0,511434460123936 
873	 0,51205536783418 
874	 0,512538424703898 
875	 0,512678550086142 
876	 0,512183824095267 
877	 0,511919651552836 
878	 0,512197944908891 
879	 0,512357575779336 
880	 0,512422708408496 
881	 0,512464572661796 
882	 0,512238650586231 
883	 0,511925507078841 
884	 0,512082684875128 
885	 0,512380032021888 
886	 0,512690474789669 
887	 0,513028160739706 
888	 0,513259567494621 
889	 0,513276349647516 
890	 0,513260679118708 
891	 0,51326442690632 
892	 0,513331408008779 
893	 0,513220270163506 
894	 0,51296089123011 
895	 0,512991133781051 
896	 0,513336256540547 
897	 0,513873918129777 
898	 0,513403765708254 
899	 0,512587830770318 
900	 0,512940986595635 
901	 0,512923145509295 
902	 0,512423605958776 
903	 0,512782906395431 
904	 0,512883389721965 
905	 0,512173790021171 
906	 0,512109734617237 
907	 0,512344973808193 
908	 0,512140156125449 
909	 0,51240234560714 
910	 0,512848872141923 
911	 0,511841017503183 
912	 0,511294026973396 
913	 0,511971948721264 
914	 0,512497841630792 
915	 0,512778797146828 
916	 0,512824066022889 
917	 0,512055784120205 
918	 0,511086077371883 
919	 0,511781351661284 
920	 0,511886240587467 
921	 0,510963382302426 
922	 0,510963799767837 
923	 0,511163792980399 
924	 0,510928715761951 
925	 0,51100032984966 
926	 0,510810415741126 
927	 0,509113813460395 
928	 0,508693428846611 
929	 0,509591717407781 
930	 0,508805084877354 
931	 0,507856276462839 
932	 0,507616345802662 
933	 0,50752091493414 
934	 0,507134559279745 
935	 0,506038271955569 
936	 0,506488496160739 
937	 0,507744449779616 
938	 0,506202098260539 
939	 0,505047210435119 
940	 0,505162412748695 
941	 0,504469876932672 
942	 0,503331821461931 
943	 0,502281218372718 
944	 0,502366761060512 
945	 0,502876379963093 
946	 0,50219344482881 
947	 0,501213630811212 
948	 0,500224342157578 
949	 0,499255845518463 
950	 0,498649490741036 
951	 0,49840010967043 
952	 0,497182277267248 
953	 0,495408061911137 
954	 0,493839404922696 
955	 0,494651612236583 
956	 0,496364314175389 
957	 0,493894584623259 
958	 0,492114428638807 
959	 0,492321562807651 
960	 0,492330196769015 
961	 0,49145478162108 
962	 0,489552878008726 
963	 0,489733908630787 
964	 0,490476439745666 
965	 0,488836783911792 
966	 0,488110042250306 
967	 0,488505811211888 
968	 0,4881109081873 
969	 0,487339613862207 
970	 0,486436419964158 
971	 0,485859416902687 
972	 0,48552274472012 
973	 0,485446211535613 
974	 0,487408745479811 
975	 0,489335927216445 
976	 0,487123999817294 
977	 0,486406546845831 
978	 0,487959992778586 
979	 0,488681230587294 
980	 0,489149330612342 
981	 0,489488533496062 
982	 0,489201248700808 
983	 0,488501009653553 
984	 0,487678589134388 
985	 0,486956000956752 
986	 0,486569512426731 
987	 0,486824025176298 
988	 0,487040194787592 
989	 0,487199826907328 
990	 0,488181645851596 
991	 0,488553284680571 
992	 0,487830254695104 
993	 0,487921698609524 
994	 0,488739106620925 
995	 0,489845649197716 
996	 0,488927214139151 
997	 0,488003587748999 
998	 0,491842409736989 
999	 0,493000411178732 
1000	 0,490970329293977 
1001	 0,492196028457941 
1002	 0,493347306511757 
1003	 0,492996170203567 
1004	 0,492888851866227 
1005	 0,493463591300561 
1006	 0,494769012366682 
1007	 0,493856697494487 
1008	 0,491677194623304 
1009	 0,490727973999364 
1010	 0,492522938321895 
1011	 0,495524848409353 
1012	 0,493202418802857 
1013	 0,491206029922252 
1014	 0,492001924573424 
1015	 0,494346275149073 
1016	 0,495558246872616 
1017	 0,493899413657611 
1018	 0,494509632844014 
1019	 0,496346988245164 
1020	 0,496755132672408 
1021	 0,497165751194168 
1022	 0,497278606132963 
1023	 0,49567832966277 
1024	 0,492291304993054 
1025	 0,489005177985258 
1026	 0,493845637654079 
1027	 0,499462756872799 
1028	 0,501029694491226 
1029	 0,501802550083106 
1030	 0,502699033284734 
1031	 0,504182771502359 
1032	 0,501786705698279 
1033	 0,497838655974935 
1034	 0,498689867012141 
1035	 0,500324938555958 
1036	 0,501045477430632 
1037	 0,498913799842563 
1038	 0,496811943625146 
1039	 0,496672576477213 
1040	 0,500944555811287 
1041	 0,501333069049196 
1042	 0,493122306139199 
1043	 0,496636790311281 
1044	 0,505435916650387 
1045	 0,506980891968178 
1046	 0,505001830802364 
1047	 0,500522091684194 
1048	 0,494525683815586 
1049	 0,494327769191951 
1050	 0,499153167758357 
1051	 0,49621954507314 
1052	 0,495166837965413 
1053	 0,499142133470319 
1054	 0,498177010120888 
1055	 0,492463649585801 
1056	 0,484795390230827 
1057	 0,491100589107586 
1058	 0,503537184321145 
1059	 0,508566867683576 
1060	 0,504937538885878 
1061	 0,496966902628039 
1062	 0,495751623109734 
1063	 0,499139287252012 
1064	 0,504611425720787 
1065	 0,504976383673925 
1066	 0,504449590013374 
1067	 0,503086442027854 
1068	 0,490792458329709 
1069	 0,481833357450487 
1070	 0,485381561036498 
1071	 0,490164959361324 
1072	 0,486720214111616 
1073	 0,468958222372526 
1074	 0,479426906360156 
1075	 0,504056732430221 
