Wavelength	PENFOUL00648.asd
325	 0,246278800033829 
326	 0,212391402235525 
327	 0,223724953081778 
328	 0,266743833195164 
329	 0,113098613330584 
330	 7,21392531920854E-02 
331	 0,292375726567553 
332	 0,248019254460367 
333	 6,55719915084678E-02 
334	 0,227583806727446 
335	 0,236881509264215 
336	 2,74008997131465E-02 
337	-8,30768800637455E-03 
338	 6,53793763433392E-02 
339	 0,146983466587031 
340	 0,184799109857784 
341	 0,180077217532664 
342	 0,141464553099807 
343	 7,57616629433595E-02 
344	 4,15353142618666E-03 
345	 2,92503513536429E-02 
346	 7,20809535545769E-02 
347	 5,21839153238146E-02 
348	 8,49720254480403E-02 
349	 0,139382666657755 
350	 9,06510682139579E-02 
351	 3,81476745874611E-02 
352	 2,54378973413519E-02 
353	 0,083639888152937 
354	 0,120058853843798 
355	 5,56301893035103E-02 
356	 3,93032575698171E-02 
357	 7,38063005933344E-02 
358	 6,97264708252173E-02 
359	 4,91736287960229E-02 
360	 2,46882197889745E-02 
361	 2,07426975611722E-02 
362	 3,78357510222583E-02 
363	 6,92908201236224E-02 
364	 6,37358289452206E-02 
365	 2,97182809368884E-02 
366	 4,05312541086706E-02 
367	 6,17854411415031E-02 
368	 6,87425678880781E-02 
369	 4,47083539298072E-02 
370	 1,69341214343675E-02 
371	 3,92324638668737E-02 
372	 4,23540243252411E-02 
373	 2,30268233957033E-02 
374	 6,35420838224125E-02 
375	 7,99985577922966E-02 
376	 0,02250187297076 
377	 1,99792569662169E-02 
378	 5,63292947515904E-02 
379	 5,35350997893455E-02 
380	 4,26502663074548E-02 
381	 0,035264385439473 
382	 4,19469149770739E-02 
383	 4,57130286448792E-02 
384	 3,24105879676257E-02 
385	 3,83084887101529E-02 
386	 5,36149587541674E-02 
387	 3,46056949428347E-02 
388	 1,96939168111151E-02 
389	 2,29383933057237E-02 
390	 3,02082293261335E-02 
391	 3,73379268819263E-02 
392	 4,04847972653069E-02 
393	 3,74888862985489E-02 
394	 3,19998226112456E-02 
395	 0,036481881983129 
396	 3,68276072327096E-02 
397	 2,73535624481219E-02 
398	 2,23640335185195E-02 
399	 2,51902435309914E-02 
400	 3,86725299158829E-02 
401	 3,91741252837945E-02 
402	 2,62081634253366E-02 
403	 2,15453415885567E-02 
404	 2,57315299483567E-02 
405	 3,64848165444388E-02 
406	 0,036559876716197 
407	 2,93080939377007E-02 
408	 2,65510748980838E-02 
409	 2,65555660617243E-02 
410	 2,81566633573744E-02 
411	 2,78399674630032E-02 
412	 2,60393897374245E-02 
413	 2,34148683519101E-02 
414	 1,88388284391015E-02 
415	 1,53821926346789E-02 
416	 0,021905598138782 
417	 2,59550268957455E-02 
418	 2,36996105687567E-02 
419	 2,56640914382474E-02 
420	 2,80292413885681E-02 
421	 2,51486232911519E-02 
422	 0,021661957443524 
423	 1,97200720828392E-02 
424	 0,022228590613433 
425	 2,50501065554219E-02 
426	 2,57006631795088E-02 
427	 2,61680117846069E-02 
428	 2,56282969027999E-02 
429	 2,18607772333031E-02 
430	 2,04050367394531E-02 
431	 2,25575820779873E-02 
432	 0,026047846222561 
433	 2,77667806997191E-02 
434	 2,54842176288984E-02 
435	 0,024677533866687 
436	 0,025684408085211 
437	 0,026375299090869 
438	 2,82050443131442E-02 
439	 3,06430114862846E-02 
440	 2,77828212961199E-02 
441	 2,35243547160955E-02 
442	 2,33622902973242E-02 
443	 2,36395162154044E-02 
444	 2,38818769221867E-02 
445	 2,55282664029306E-02 
446	 2,67259825626019E-02 
447	 0,026384301737472 
448	 0,025837868766101 
449	 2,52557022699756E-02 
450	 2,43724706265411E-02 
451	 2,56788300069945E-02 
452	 2,87439010237549E-02 
453	 2,84676959884234E-02 
454	 2,59738910525207E-02 
455	 2,27374337585168E-02 
456	 2,12236788436385E-02 
457	 2,12896080165129E-02 
458	 2,09286050397855E-02 
459	 2,11359435538232E-02 
460	 2,21425827562928E-02 
461	 2,28279763286079E-02 
462	 2,42641542939558E-02 
463	 2,80294460300627E-02 
464	 2,76342097300901E-02 
465	 2,34631146513501E-02 
466	 2,23385343047843E-02 
467	 2,44816788580029E-02 
468	 2,90254374659513E-02 
469	 2,67174835929517E-02 
470	 2,14012288094702E-02 
471	 2,33641548076636E-02 
472	 2,52720092806869E-02 
473	 2,50812572295016E-02 
474	 2,48236379886336E-02 
475	 2,37945888709544E-02 
476	 2,14044821797247E-02 
477	 2,16699403797481E-02 
478	 0,024136882814269 
479	 0,025637952318189 
480	 2,48549174753822E-02 
481	 2,19239978600255E-02 
482	 2,28846528898198E-02 
483	 0,025416332434766 
484	 2,51920451650152E-02 
485	 0,025074563975587 
486	 2,56148477072684E-02 
487	 2,60946432111759E-02 
488	 2,65590789578919E-02 
489	 2,69291280691592E-02 
490	 2,58182878112618E-02 
491	 2,43205250600463E-02 
492	 2,54727979070959E-02 
493	 2,59728894832768E-02 
494	 2,48843472393803E-02 
495	 2,38149264673637E-02 
496	 2,33531524761913E-02 
497	 2,39765058678995E-02 
498	 2,40149089142955E-02 
499	 2,35787251194679E-02 
500	 2,43301425549321E-02 
501	 2,50347368639352E-02 
502	 2,50579077824387E-02 
503	 2,53404122856376E-02 
504	 2,57126501229365E-02 
505	 2,58046066984486E-02 
506	 0,024254673011994 
507	 2,20338266003299E-02 
508	 2,51881849163803E-02 
509	 2,80554053745168E-02 
510	 2,57091569410983E-02 
511	 2,51947885669437E-02 
512	 2,65600776005371E-02 
513	 2,62179535426126E-02 
514	 2,65303708511828E-02 
515	 0,02797937120135 
516	 2,71217475773986E-02 
517	 2,54787428078686E-02 
518	 2,55956822611531E-02 
519	 0,025610890898247 
520	 2,53838613272513E-02 
521	 2,61955950632608E-02 
522	 2,66845785508223E-02 
523	 2,59912224595424E-02 
524	 2,61930884361948E-02 
525	 2,69025221969178E-02 
526	 2,64911011052512E-02 
527	 2,60444988095803E-02 
528	 2,60274042967033E-02 
529	 2,69548201103024E-02 
530	 2,74658710682528E-02 
531	 0,026032382831055 
532	 2,54536656983258E-02 
533	 2,59915480343042E-02 
534	 0,026270491203965 
535	 2,65046010057481E-02 
536	 2,67859344168207E-02 
537	 2,70454693558257E-02 
538	 2,71532093148241E-02 
539	 2,68668413022875E-02 
540	 2,67379691858883E-02 
541	 0,026835867086119 
542	 2,64400994695299E-02 
543	 2,64837951834836E-02 
544	 2,77967600764525E-02 
545	 2,79430980181904E-02 
546	 2,71043497728829E-02 
547	 2,72865668332377E-02 
548	 2,72199247641449E-02 
549	 0,026562059094352 
550	 2,72733542842499E-02 
551	 2,84290587823015E-02 
552	 2,83260384987543E-02 
553	 2,76504747527561E-02 
554	 2,68868302983675E-02 
555	 2,70893212476173E-02 
556	 2,76830774202486E-02 
557	 2,81404212325466E-02 
558	 2,84695409042804E-02 
559	 2,85886989739979E-02 
560	 0,028361880509869 
561	 2,79210427688281E-02 
562	 2,75190972128255E-02 
563	 2,83220621891831E-02 
564	 2,88192398771193E-02 
565	 2,69181399081628E-02 
566	 2,60899883769416E-02 
567	 2,69223995754783E-02 
568	 2,81566259214501E-02 
569	 2,87414139153177E-02 
570	 2,80680575935065E-02 
571	 2,80131977764347E-02 
572	 2,85336784870679E-02 
573	 2,89195684073904E-02 
574	 2,87843744105597E-02 
575	 2,81989229154058E-02 
576	 2,84611270693303E-02 
577	 2,91014830351618E-02 
578	 2,94900833365677E-02 
579	 3,02731696742537E-02 
580	 3,11107952723786E-02 
581	 3,05306497384306E-02 
582	 3,00385231166788E-02 
583	 3,04863627588469E-02 
584	 3,11758139499729E-02 
585	 3,17737796549521E-02 
586	 3,18616136789117E-02 
587	 3,21226397596979E-02 
588	 3,26221298387693E-02 
589	 3,26260889439931E-02 
590	 3,26450650184838E-02 
591	 3,31342602138502E-02 
592	 3,30309956285324E-02 
593	 3,25645208856158E-02 
594	 0,032942319861397 
595	 3,32579622818687E-02 
596	 3,31788140910268E-02 
597	 0,033444792909076 
598	 3,38496263896974E-02 
599	 3,39879876126653E-02 
600	 3,38570497166371E-02 
601	 3,35280685005897E-02 
602	 3,32042870028393E-02 
603	 3,33536220779824E-02 
604	 3,41736446585761E-02 
605	 3,34940027385835E-02 
606	 3,20307806238632E-02 
607	 3,25172272433468E-02 
608	 3,26132121026833E-02 
609	 3,17971052076955E-02 
610	 3,24447405316898E-02 
611	 3,30356104373283E-02 
612	 3,15076910611838E-02 
613	 3,05936391124521E-02 
614	 3,07522184218071E-02 
615	 3,10421768182716E-02 
616	 3,14959888760774E-02 
617	 3,20406914229944E-02 
618	 3,21675329830896E-02 
619	 3,19021203280509E-02 
620	 3,14258875636301E-02 
621	 3,10487912402149E-02 
622	 3,09068673329878E-02 
623	 0,030988831007424 
624	 3,08746205446165E-02 
625	 3,02012744818058E-02 
626	 3,08998490852827E-02 
627	 3,23406232751311E-02 
628	 3,14562619384897E-02 
629	 3,05940774843137E-02 
630	 3,09403703546245E-02 
631	 3,17150304458777E-02 
632	 3,23238721189509E-02 
633	 0,03195208774504 
634	 3,19480372541211E-02 
635	 3,24856858472243E-02 
636	 3,24234485843409E-02 
637	 3,25196066963363E-02 
638	 3,33981949277544E-02 
639	 3,43043553926611E-02 
640	 3,48075943555692E-02 
641	 3,41249453017542E-02 
642	 3,38524872347686E-02 
643	 3,44840631090612E-02 
644	 3,44947224572518E-02 
645	 3,43767351434397E-02 
646	 3,49446907929876E-02 
647	 3,50327929454669E-02 
648	 3,45848189411975E-02 
649	 3,43785868169506E-02 
650	 3,46446347790808E-02 
651	 3,53701391829201E-02 
652	 3,49317796880749E-02 
653	 0,033789711600416 
654	 3,33586016873037E-02 
655	 3,30438047986001E-02 
656	 3,27203319021791E-02 
657	 3,25643162447742E-02 
658	 3,25006249641319E-02 
659	 3,24191688102772E-02 
660	 3,16229197829003E-02 
661	 3,04505464739979E-02 
662	 3,02927282170164E-02 
663	 0,030257861391651 
664	 2,98969685160439E-02 
665	 2,94535720633028E-02 
666	 2,89201294723304E-02 
667	 0,028209578311282 
668	 2,81773086864358E-02 
669	 2,87905615169563E-02 
670	 2,89265278901378E-02 
671	 2,88074310583966E-02 
672	 2,86361894731464E-02 
673	 2,84236764706112E-02 
674	 2,81112320154945E-02 
675	 2,73680554956252E-02 
676	 2,73754725135032E-02 
677	 2,83386235580803E-02 
678	 2,86917979086572E-02 
679	 0,028593139464095 
680	 2,84017904702376E-02 
681	 0,028637194766411 
682	 2,92035468554169E-02 
683	 2,93388499569942E-02 
684	 0,029330553979133 
685	 2,94090331628642E-02 
686	 2,99828904184686E-02 
687	 3,07580682755181E-02 
688	 3,11031027127725E-02 
689	 3,16094089182529E-02 
690	 3,25022827980169E-02 
691	 3,38561833737571E-02 
692	 3,54608920688695E-02 
693	 3,71213137127865E-02 
694	 0,038837713915908 
695	 4,07860121663389E-02 
696	 4,34082991511606E-02 
697	 4,62842548424119E-02 
698	 4,93294654710919E-02 
699	 5,31566709159355E-02 
700	 5,74143233692387E-02 
701	 0,06159187858668 
702	 6,57160335270834E-02 
703	 6,98758006441795E-02 
704	 7,44263524987748E-02 
705	 7,90846797296118E-02 
706	 8,36380848980432E-02 
707	 8,79904042464362E-02 
708	 9,20926679621938E-02 
709	 9,58825374943565E-02 
710	 9,96710179170053E-02 
711	 0,103536054308255 
712	 0,10740351643278 
713	 0,110791542328404 
714	 0,113315300031147 
715	 0,116200263022144 
716	 0,119341818659088 
717	 0,121861435699513 
718	 0,123967707092704 
719	 0,125778128970183 
720	 0,127572531324604 
721	 0,129333306316781 
722	 0,13099574227309 
723	 0,132780169165806 
724	 0,134641553202489 
725	 0,136304789561846 
726	 0,137649660465066 
727	 0,138659090543371 
728	 0,139889312418709 
729	 0,141051288403203 
730	 0,141453109314591 
731	 0,142168028982615 
732	 0,143329527023726 
733	 0,143991951716374 
734	 0,144440617524524 
735	 0,144954174498864 
736	 0,145401955906202 
737	 0,145934167713795 
738	 0,147032972360882 
739	 0,147752538318278 
740	 0,147855617416435 
741	 0,148321057101435 
742	 0,148831328268475 
743	 0,148938994949074 
744	 0,149309905101026 
745	 0,149934253657751 
746	 0,15034908630554 
747	 0,150496014941874 
748	 0,150450535149321 
749	 0,151073825422822 
750	 0,151840389409085 
751	 0,151796253791406 
752	 0,151688670634065 
753	 0,151703752631282 
754	 0,151706486275807 
755	 0,15170299512505 
756	 0,151749665542469 
757	 0,152344487032275 
758	 0,153158192799038 
759	 0,153418634481102 
760	 0,153392665044083 
761	 0,153267532451084 
762	 0,153508219438609 
763	 0,153868858888483 
764	 0,154082287504078 
765	 0,154029604321639 
766	 0,153929790174027 
767	 0,154431933150872 
768	 0,15486715666877 
769	 0,154973011290444 
770	 0,154953397775969 
771	 0,154912174158279 
772	 0,15495387615675 
773	 0,155170711724103 
774	 0,155441483640171 
775	 0,155288215565234 
776	 0,15538638671322 
777	 0,155955713278484 
778	 0,155888219448223 
779	 0,155553569964866 
780	 0,155660933337028 
781	 0,156162948396284 
782	 0,156783702913562 
783	 0,156583727161503 
784	 0,156286089778893 
785	 0,156383099454755 
786	 0,156640773411189 
787	 0,156978595503459 
788	 0,157333773802391 
789	 0,157317760878934 
790	 0,156993573349438 
791	 0,157191968407775 
792	 0,157306375129643 
793	 0,156913325280308 
794	 0,157088134431698 
795	 0,157582905795591 
796	 0,15745169645285 
797	 0,157639973695418 
798	 0,15824315556 
799	 0,158201873042161 
800	 0,157936901839213 
801	 0,157916848805597 
802	 0,158320584316241 
803	 0,158966180195951 
804	 0,159355933850822 
805	 0,159389931749281 
806	 0,159145465777255 
807	 0,159383615257449 
808	 0,159654611239713 
809	 0,15944208630265 
810	 0,159375192009856 
811	 0,159454121440865 
812	 0,159285385799145 
813	 0,15918963102962 
814	 0,159314454341711 
815	 0,159634929290744 
816	 0,160053563533119 
817	 0,160442330148183 
818	 0,160160227304555 
819	 0,159595342187192 
820	 0,16037944183632 
821	 0,160966206446571 
822	 0,160720304607892 
823	 0,160715371649226 
824	 0,160885893634748 
825	 0,161013381534224 
826	 0,161260830034621 
827	 0,161533424688742 
828	 0,161439789501081 
829	 0,161330256821267 
830	 0,161389478338566 
831	 0,161495617755763 
832	 0,161636675633025 
833	 0,161811478309843 
834	 0,161612135545689 
835	 0,161110666259554 
836	 0,160783875679995 
837	 0,160984604221065 
838	 0,161765468397832 
839	 0,161985514043175 
840	 0,16195059580907 
841	 0,162285892157214 
842	 0,162303800860305 
843	 0,162074100577579 
844	 0,162388531636782 
845	 0,162635135559022 
846	 0,162557136698043 
847	 0,162928689646018 
848	 0,163249666719851 
849	 0,162722382355348 
850	 0,162377930145828 
851	 0,162490088234451 
852	 0,163092204587171 
853	 0,16325070607838 
854	 0,1625944391616 
855	 0,162425308891198 
856	 0,162643891388257 
857	 0,16289872709411 
858	 0,163216766899507 
859	 0,163445151758843 
860	 0,1631457378872 
861	 0,162910887827007 
862	 0,163059495996035 
863	 0,163401293414646 
864	 0,163754751547496 
865	 0,163913090643417 
866	 0,163874922869535 
867	 0,163743694525978 
868	 0,163858611355609 
869	 0,163784729311511 
870	 0,163452385919769 
871	 0,163790482828333 
872	 0,164202367801173 
873	 0,163898448735432 
874	 0,163811647161012 
875	 0,164015446587206 
876	 0,164094596575512 
877	 0,16426625473379 
878	 0,164522055017928 
879	 0,164317100260965 
880	 0,164196514238244 
881	 0,164732050345626 
882	 0,164652995260314 
883	 0,164141752155301 
884	 0,164355445544256 
885	 0,164625058293996 
886	 0,164741271477575 
887	 0,164883713835401 
888	 0,164931116675867 
889	 0,164808570932371 
890	 0,165090346033387 
891	 0,165638513537238 
892	 0,165971558419848 
893	 0,165888441312247 
894	 0,165421030491884 
895	 0,1649835369861 
896	 0,165154962269705 
897	 0,166149917414231 
898	 0,165565296435737 
899	 0,164517275197642 
900	 0,165676658560405 
901	 0,166102971839066 
902	 0,165462445592692 
903	 0,165901793282867 
904	 0,166053970042215 
905	 0,165281794694616 
906	 0,165572506865173 
907	 0,166277295729618 
908	 0,166150037121352 
909	 0,165995889236991 
910	 0,165997559458761 
911	 0,166124953863973 
912	 0,166215120904902 
913	 0,166245956928893 
914	 0,166648200797571 
915	 0,166950466966735 
916	 0,166626576125836 
917	 0,166363754698469 
918	 0,166268947260588 
919	 0,166267828274384 
920	 0,165918463554028 
921	 0,165408868587507 
922	 0,166497909535695 
923	 0,167201639537508 
924	 0,166053260696493 
925	 0,166339943543268 
926	 0,167101670989839 
927	 0,165650954037842 
928	 0,165088149529576 
929	 0,165661111875813 
930	 0,164689155054658 
931	 0,164570749336399 
932	 0,16632776963189 
933	 0,166839175771599 
934	 0,166159056723771 
935	 0,164897522817107 
936	 0,164951453918733 
937	 0,166039583766916 
938	 0,166059201644755 
939	 0,165711900377131 
940	 0,165143498645683 
941	 0,163791995526405 
942	 0,163176876193113 
943	 0,16441225511341 
944	 0,164263533929599 
945	 0,163491463560721 
946	 0,16455837973092 
947	 0,165017849744264 
948	 0,164228455683827 
949	 0,162268800475967 
950	 0,162054869420411 
951	 0,164457766317825 
952	 0,16328776329899 
953	 0,160858203258273 
954	 0,160708633531651 
955	 0,161219041879137 
956	 0,161869652368044 
957	 0,162262773421341 
958	 0,161674947381806 
959	 0,160301595001941 
960	 0,160307786471308 
961	 0,160502723639233 
962	 0,160009472068718 
963	 0,159988226132142 
964	 0,160193761562163 
965	 0,16003134444678 
966	 0,159696102538134 
967	 0,15979246279461 
968	 0,162299214885137 
969	 0,163204071862055 
970	 0,161212568282311 
971	 0,159724184001107 
972	 0,158648805083077 
973	 0,157887777566546 
974	 0,159657589748028 
975	 0,16179890625749 
976	 0,159932934876064 
977	 0,159187718391877 
978	 0,160565270421797 
979	 0,162359680510274 
980	 0,163663259074169 
981	 0,163834487896874 
982	 0,16272247790682 
983	 0,161339371571325 
984	 0,160817922974208 
985	 0,162426258145129 
986	 0,163542937009897 
987	 0,158508414190232 
988	 0,15853374455781 
989	 0,164093927226931 
990	 0,164499920293627 
991	 0,164067848413745 
992	 0,164707461913354 
993	 0,163827032388426 
994	 0,163033043413943 
995	 0,164088199512481 
996	 0,165539778681411 
997	 0,166319319358508 
998	 0,164921515774091 
999	 0,165015351883926 
1000	 0,166539310812507 
1001	 0,164892289268511 
1002	 0,164681622956131 
1003	 0,167651270353925 
1004	 0,169786334487952 
1005	 0,169730789897682 
1006	 0,166931429705598 
1007	 0,16649252456427 
1008	 0,167192051931862 
1009	 0,1650968977042 
1010	 0,167000766948292 
1011	 0,171373543385335 
1012	 0,166820622959238 
1013	 0,164932827565844 
1014	 0,169634765873275 
1015	 0,173202455920542 
1016	 0,172599857404535 
1017	 0,166953484591149 
1018	 0,169320842400601 
1019	 0,173725871359366 
1020	 0,16873072102205 
1021	 0,168583286722364 
1022	 0,173312965041391 
1023	 0,173558851034048 
1024	 0,171140220726416 
1025	 0,167745763047977 
1026	 0,168578844308088 
1027	 0,171864730624646 
1028	 0,175455696000224 
1029	 0,174231356126188 
1030	 0,17187805889636 
1031	 0,173329551569483 
1032	 0,175884795565813 
1033	 0,178816735562552 
1034	 0,181689968612923 
1035	 0,181540252897839 
1036	 0,178037471088831 
1037	 0,172499079384882 
1038	 0,172069319317308 
1039	 0,178223327301671 
1040	 0,179807842589044 
1041	 0,179468788883568 
1042	 0,179927442276236 
1043	 0,180865742814792 
1044	 0,18352432078003 
1045	 0,18894054385499 
1046	 0,182066536213796 
1047	 0,169165183554656 
1048	 0,173596679308651 
1049	 0,178201117859621 
1050	 0,178220289303595 
1051	 0,175076108918299 
1052	 0,174936221322416 
1053	 0,17991395957301 
1054	 0,183589641968367 
1055	 0,182370186125925 
1056	 0,175376103330562 
1057	 0,179822777729918 
1058	 0,18926132652722 
1059	 0,191809484746364 
1060	 0,189025079061979 
1061	 0,183203626712917 
1062	 0,179147944296347 
1063	 0,181076946643262 
1064	 0,188395279492312 
1065	 0,194127343874731 
1066	 0,194478979476238 
1067	 0,18927182317638 
1068	 0,187751955112911 
1069	 0,190593500934857 
1070	 0,195779707410083 
1071	 0,187767067845488 
1072	 0,174845828817827 
1073	 0,171052691236868 
1074	 0,177975566735168 
1075	 0,187821550210858 
