Wavelength	PENFOUL00279.asd
325	 0,222377943432928 
326	 0,230025295332945 
327	 0,255494570289731 
328	 0,296657333687882 
329	 0,337807361204186 
330	 0,358998056300849 
331	 0,339741133919119 
332	 0,2633082878408 
333	 0,167461334816412 
334	 0,309583229623495 
335	 0,287685268679935 
336	 7,81256242459109E-02 
337	 0,149298739268404 
338	 0,267145541753972 
339	 0,19342430330261 
340	 0,166544287127925 
341	 0,185094160355442 
342	 0,196803278472367 
343	 0,188913099843123 
344	 0,161600767049619 
345	 0,167403631467926 
346	 0,166346981565421 
347	 0,123967666022942 
348	 0,145315233714621 
349	 0,201396719790015 
350	 0,183348211133181 
351	 0,158113353899772 
352	 0,148375658266087 
353	 0,136273119686934 
354	 0,124341441919173 
355	 0,112907550178123 
356	 0,12315515464495 
357	 0,152584395747403 
358	 0,185891639627518 
359	 0,167680830759443 
360	 0,093525390700932 
361	 0,111336666744859 
362	 0,169989923156634 
363	 0,164688738062239 
364	 0,168731088594294 
365	 0,184562725671834 
366	 0,160795869797924 
367	 0,140259148051809 
368	 0,146222475256284 
369	 0,140814631735047 
370	 0,137139729288576 
371	 0,169255094257804 
372	 0,16627126035761 
373	 0,128175710265197 
374	 0,154700453405142 
375	 0,174332572217012 
376	 0,14224133448658 
377	 0,151516152008755 
378	 0,180270211935088 
379	 0,152182054483318 
380	 0,139363795933216 
381	 0,158274348213068 
382	 0,15900925796639 
383	 0,152207079231411 
384	 0,149432353374939 
385	 0,144217234957589 
386	 0,138415209707513 
387	 0,135795166997461 
388	 0,14854458998768 
389	 0,173681765381635 
390	 0,172717003490886 
391	 0,161558921743646 
392	 0,162422116167642 
393	 0,155060991079326 
394	 0,142355306903333 
395	 0,143721100687673 
396	 0,147936444467883 
397	 0,149453941874156 
398	 0,154999904560024 
399	 0,159343925097904 
400	 0,154760726903787 
401	 0,140923077057521 
402	 0,125941059805972 
403	 0,139441711830266 
404	 0,156459995266817 
405	 0,159923731102626 
406	 0,152616685875503 
407	 0,14346162018662 
408	 0,150952655627599 
409	 0,152622510091246 
410	 0,145521110121568 
411	 0,147308666986688 
412	 0,152067565598331 
413	 0,153278693676252 
414	 0,147981238733615 
415	 0,140504167493204 
416	 0,143034842586412 
417	 0,148635689501518 
418	 0,153409862167388 
419	 0,154037025147889 
420	 0,149888130191741 
421	 0,140407445540747 
422	 0,139913475185573 
423	 0,147415008543497 
424	 0,147244029577775 
425	 0,145180280192273 
426	 0,144756753762217 
427	 0,144957333381853 
428	 0,144866412502394 
429	 0,142843753162692 
430	 0,142044267731978 
431	 0,142990877179212 
432	 0,143133882299563 
433	 0,144324255720786 
434	 0,147815906481367 
435	 0,145504313904301 
436	 0,140210145485225 
437	 0,1426943423356 
438	 0,145817830793783 
439	 0,146934805501168 
440	 0,148635083660826 
441	 0,149386167652305 
442	 0,147083676764752 
443	 0,145617270000814 
444	 0,145764338322418 
445	 0,146415470392541 
446	 0,147745226526567 
447	 0,149473876233317 
448	 0,148945687715901 
449	 0,146903608420115 
450	 0,145095844704273 
451	 0,146726062971282 
452	 0,151122240855235 
453	 0,150144456640894 
454	 0,148783960701162 
455	 0,151646931108857 
456	 0,151895556723042 
457	 0,149408560940346 
458	 0,146841795159642 
459	 0,14666590639844 
460	 0,149350787512567 
461	 0,149578315042787 
462	 0,149082789685354 
463	 0,150842326990385 
464	 0,152014579084037 
465	 0,15194261933682 
466	 0,150911550156126 
467	 0,149796391892118 
468	 0,149291549975691 
469	 0,149883472425752 
470	 0,151058715703734 
471	 0,151643041902913 
472	 0,152723725169653 
473	 0,154340951167821 
474	 0,155605532192539 
475	 0,155108389667014 
476	 0,15174075347541 
477	 0,149871979450082 
478	 0,14988474622559 
479	 0,149956630310669 
480	 0,150245556395287 
481	 0,150794072623272 
482	 0,151924453969452 
483	 0,153062211302001 
484	 0,153400714141958 
485	 0,153521339675507 
486	 0,153131716369009 
487	 0,150237483592146 
488	 0,14862373977919 
489	 0,150816535717853 
490	 0,151237788455861 
491	 0,15015471771488 
492	 0,150324972408003 
493	 0,150661431374886 
494	 0,150796401176723 
495	 0,150471345753878 
496	 0,150264293323019 
497	 0,150832338261769 
498	 0,152059148538774 
499	 0,153246938780673 
500	 0,152464489985845 
501	 0,151718802121392 
502	 0,152040964882187 
503	 0,151737070649124 
504	 0,151279322753902 
505	 0,151930904573368 
506	 0,151592978086982 
507	 0,150473245906212 
508	 0,152415297564102 
509	 0,154073471492633 
510	 0,152563976298395 
511	 0,152680197074175 
512	 0,154088685194581 
513	 0,153351428235271 
514	 0,153348128338614 
515	 0,154954310002324 
516	 0,155521177958652 
517	 0,155126368092574 
518	 0,154228760687446 
519	 0,154345338063818 
520	 0,155321632983196 
521	 0,155007357893547 
522	 0,154235416804231 
523	 0,153771885235659 
524	 0,154920276072582 
525	 0,156386437399007 
526	 0,154555534455633 
527	 0,154190315514628 
528	 0,156153704160592 
529	 0,155570174975203 
530	 0,154185355373986 
531	 0,154365123855918 
532	 0,154732620587526 
533	 0,154923291749434 
534	 0,154729573935985 
535	 0,154624783348722 
536	 0,154837363657448 
537	 0,154732367854769 
538	 0,154470219973265 
539	 0,154543821542539 
540	 0,154216611784609 
541	 0,153472305308718 
542	 0,153148881040848 
543	 0,153561930456635 
544	 0,154885031097289 
545	 0,15538841606123 
546	 0,155112734079207 
547	 0,155390702804579 
548	 0,155033885980366 
549	 0,153901566344388 
550	 0,155109238226145 
551	 0,156986053998501 
552	 0,15648759626155 
553	 0,155383409254866 
554	 0,154461982191248 
555	 0,15465970926922 
556	 0,155337709765437 
557	 0,155877906744376 
558	 0,155748508382406 
559	 0,155359365930707 
560	 0,156174852221107 
561	 0,156196574545731 
562	 0,154971119686922 
563	 0,155063697738314 
564	 0,155399003104036 
565	 0,154261893470618 
566	 0,153994815638751 
567	 0,154787518954084 
568	 0,155063758196153 
569	 0,155400560849818 
570	 0,15615174969125 
571	 0,156509592755292 
572	 0,157132143640136 
573	 0,159897584198226 
574	 0,161514293754551 
575	 0,161357205676248 
576	 0,163009456802154 
577	 0,164941374919539 
578	 0,165220994609551 
579	 0,166586298907421 
580	 0,168796820484716 
581	 0,16915871304021 
582	 0,169191183079602 
583	 0,16985472765672 
584	 0,171425809337225 
585	 0,17316491579914 
586	 0,17375990431897 
587	 0,173983161859642 
588	 0,174143008181137 
589	 0,174379430615962 
590	 0,175116638207218 
591	 0,176609656338083 
592	 0,17656300210097 
593	 0,175390805885468 
594	 0,175412079513265 
595	 0,175929350236064 
596	 0,176574338603113 
597	 0,176881194865071 
598	 0,176866827955105 
599	 0,176658935273569 
600	 0,176491399436394 
601	 0,17631670422462 
602	 0,1756045122219 
603	 0,174907222765751 
604	 0,174618520437908 
605	 0,173817443527542 
606	 0,17289221365586 
607	 0,173338031441812 
608	 0,172828323449556 
609	 0,171020938049078 
610	 0,171533717403024 
611	 0,172370291113801 
612	 0,170745649296141 
613	 0,169189573111251 
614	 0,168405252034965 
615	 0,168430478891715 
616	 0,168878121565085 
617	 0,169373368105556 
618	 0,169262143216204 
619	 0,168690349065887 
620	 0,168092929246273 
621	 0,167959942332209 
622	 0,168331876810815 
623	 0,168399136248204 
624	 0,168255219964138 
625	 0,168090933868068 
626	 0,169119050283484 
627	 0,170694936599287 
628	 0,170157250344307 
629	 0,169696524303826 
630	 0,170462389492543 
631	 0,171954021852639 
632	 0,173420515168095 
633	 0,173772063410433 
634	 0,174165873051154 
635	 0,174992533985063 
636	 0,176253378571877 
637	 0,177744348084714 
638	 0,179238226798468 
639	 0,18017568847259 
640	 0,180771912676195 
641	 0,181818136900715 
642	 0,18304676528287 
643	 0,184240360508391 
644	 0,184723749703943 
645	 0,185031297455395 
646	 0,185933793636975 
647	 0,186401203458192 
648	 0,1862082148701 
649	 0,185435275383249 
650	 0,18504401721833 
651	 0,185542444489697 
652	 0,185129192663683 
653	 0,184196605856325 
654	 0,184205222994194 
655	 0,183429798728839 
656	 0,181570436759646 
657	 0,180062858140268 
658	 0,178911675720205 
659	 0,177993656430452 
660	 0,176392505258775 
661	 0,17429918286888 
662	 0,17284334783318 
663	 0,171657651766677 
664	 0,170527550664599 
665	 0,169229442279988 
666	 0,167886192978062 
667	 0,166718500817469 
668	 0,165800554041596 
669	 0,165215415281627 
670	 0,165193462917813 
671	 0,165058130642296 
672	 0,164301206263374 
673	 0,16369548495059 
674	 0,163299860430916 
675	 0,162777684628918 
676	 0,16300018538496 
677	 0,163968047817764 
678	 0,163746268992623 
679	 0,163348388127966 
680	 0,164142768681352 
681	 0,164625080971786 
682	 0,164812092463712 
683	 0,165832725055566 
684	 0,167199220948055 
685	 0,168701178972775 
686	 0,170989788012418 
687	 0,173767842329074 
688	 0,176351714017794 
689	 0,179479964342791 
690	 0,183521401627422 
691	 0,188916934574311 
692	 0,194817975284978 
693	 0,200548554891867 
694	 0,207826882490575 
695	 0,21656066790829 
696	 0,225696505788628 
697	 0,235544372882696 
698	 0,246156512548814 
699	 0,257438384489225 
700	 0,26925433561646 
701	 0,281451643019271 
702	 0,293816275334794 
703	 0,306029803698823 
704	 0,317449722313715 
705	 0,328752338554024 
706	 0,340312048096394 
707	 0,35141756463647 
708	 0,361788541926438 
709	 0,371076221248941 
710	 0,380329154316725 
711	 0,389664004094413 
712	 0,397969231352574 
713	 0,405674449025736 
714	 0,41317953676476 
715	 0,420078966385031 
716	 0,426467444745001 
717	 0,432814032791602 
718	 0,438574468911941 
719	 0,443564939885037 
720	 0,44820406828661 
721	 0,45264091918345 
722	 0,457015409498645 
723	 0,460959885135369 
724	 0,464398439054978 
725	 0,467376451345067 
726	 0,470213749082611 
727	 0,4731130763413 
728	 0,475882992516351 
729	 0,478314836806517 
730	 0,480104495715785 
731	 0,481614255221544 
732	 0,483105073210541 
733	 0,485075464824299 
734	 0,48699990624514 
735	 0,488390548065956 
736	 0,489301405697891 
737	 0,490090594040422 
738	 0,491659413523462 
739	 0,49290011932237 
740	 0,49351562001955 
741	 0,494420572459263 
742	 0,495388610013975 
743	 0,496076702535881 
744	 0,496724304397051 
745	 0,497407732893605 
746	 0,498256925459884 
747	 0,498741485675394 
748	 0,498718369480079 
749	 0,499404881769409 
750	 0,500309943355293 
751	 0,500456757879386 
752	 0,500663881141769 
753	 0,501072448131962 
754	 0,501354792593 
755	 0,5014981138186 
756	 0,501553981839585 
757	 0,50206243699427 
758	 0,502869165967292 
759	 0,503573261980667 
760	 0,503584357440576 
761	 0,503010349979817 
762	 0,5034023151953 
763	 0,503994213212985 
764	 0,504016688600754 
765	 0,50419226657596 
766	 0,504461643889112 
767	 0,504275317022091 
768	 0,504354566163652 
769	 0,504894710251412 
770	 0,505223274443663 
771	 0,505381202505339 
772	 0,505486719485483 
773	 0,50551322301962 
774	 0,505461826065463 
775	 0,505214698378013 
776	 0,505530915135157 
777	 0,506559857903015 
778	 0,506351786386354 
779	 0,505685616995413 
780	 0,506012538758801 
781	 0,506518098596325 
782	 0,506917942278759 
783	 0,50692769510111 
784	 0,507091053280881 
785	 0,507691959006658 
786	 0,507869978264242 
787	 0,507820448929587 
788	 0,508129252167963 
789	 0,508121592515687 
790	 0,507858888302201 
791	 0,508459200922848 
792	 0,508966759459678 
793	 0,508668273583522 
794	 0,508774250915383 
795	 0,509117142423892 
796	 0,508871101195136 
797	 0,508858751918234 
798	 0,509282373559487 
799	 0,509728719489726 
800	 0,510006624546002 
801	 0,509988089867153 
802	 0,510223654185555 
803	 0,510634933279187 
804	 0,510742040593809 
805	 0,510793070324039 
806	 0,51094938857389 
807	 0,511592566511828 
808	 0,512181252524869 
809	 0,512137177610615 
810	 0,512161408397637 
811	 0,512288164110401 
812	 0,512107727030496 
813	 0,512290012443475 
814	 0,512989374985988 
815	 0,51330374810594 
816	 0,513357409661437 
817	 0,51340355841817 
818	 0,513547372935992 
819	 0,513860070448005 
820	 0,514413250866522 
821	 0,515102130478236 
822	 0,515760655802686 
823	 0,515883645065868 
824	 0,515570228253207 
825	 0,515040964282265 
826	 0,516049810647013 
827	 0,517964799403544 
828	 0,517412438838192 
829	 0,516651906662557 
830	 0,516802821659642 
831	 0,516877237420943 
832	 0,517039294123094 
833	 0,517622855533734 
834	 0,517982908510123 
835	 0,518015094839908 
836	 0,517931559598066 
837	 0,518029202845936 
838	 0,51845380460845 
839	 0,518874859445949 
840	 0,519307806270683 
841	 0,519833705455206 
842	 0,519963363345363 
843	 0,51974338493795 
844	 0,519697484986586 
845	 0,519924035504991 
846	 0,520457106211458 
847	 0,521123327947242 
848	 0,52143657759019 
849	 0,520787148558215 
850	 0,520494108797413 
851	 0,520811411191232 
852	 0,521402649166043 
853	 0,521487702603561 
854	 0,520886830568293 
855	 0,521611367448827 
856	 0,522779962633283 
857	 0,522898674503386 
858	 0,522742070686065 
859	 0,522630823985599 
860	 0,522980066831488 
861	 0,523391240691675 
862	 0,523593416283827 
863	 0,523278825868363 
864	 0,523081395042032 
865	 0,523834113589031 
866	 0,524547961174313 
867	 0,524959100838151 
868	 0,525081858328166 
869	 0,525096021300505 
870	 0,525121729856745 
871	 0,525210640661925 
872	 0,525369866098272 
873	 0,52559341697506 
874	 0,525815661580135 
875	 0,526070095892799 
876	 0,526487417839188 
877	 0,527058735132202 
878	 0,527611802258072 
879	 0,527303064069393 
880	 0,526769929511164 
881	 0,526782161562057 
882	 0,52733657923538 
883	 0,528047806192129 
884	 0,527875961414879 
885	 0,527852713918933 
886	 0,528258030189471 
887	 0,528428713425195 
888	 0,528743780011086 
889	 0,529479326427443 
890	 0,529071472589122 
891	 0,528070598054189 
892	 0,52825549521205 
893	 0,528753387405178 
894	 0,52917277175344 
895	 0,529013524796558 
896	 0,528942020756838 
897	 0,529410543726935 
898	 0,52923963753349 
899	 0,529067203682185 
900	 0,530374193374354 
901	 0,530717893010107 
902	 0,52992561387168 
903	 0,530189862099102 
904	 0,530563639103338 
905	 0,530457915859492 
906	 0,53012256970433 
907	 0,529995920407002 
908	 0,530633974349039 
909	 0,53115873704306 
910	 0,531383242488418 
911	 0,531452829726305 
912	 0,531792831489985 
913	 0,532370076385662 
914	 0,531517590371545 
915	 0,531031376905825 
916	 0,532843950669432 
917	 0,532577426384933 
918	 0,531005861651594 
919	 0,532520589644184 
920	 0,53315372933527 
921	 0,531992419709139 
922	 0,531526859624963 
923	 0,531570350545557 
924	 0,531882457220433 
925	 0,532635895288863 
926	 0,533082446008111 
927	 0,531904239491789 
928	 0,531045612731286 
929	 0,530923588223375 
930	 0,530794990611652 
931	 0,530440237690015 
932	 0,529876281377434 
933	 0,530327116031347 
934	 0,530653254820165 
935	 0,529323805258586 
936	 0,52907560199961 
937	 0,529734487909268 
938	 0,528972185688735 
939	 0,528458166211264 
940	 0,528621963173046 
941	 0,528265768137131 
942	 0,528070905332089 
943	 0,528555258520728 
944	 0,528128172638091 
945	 0,526894388223524 
946	 0,525512713203756 
947	 0,524977006957739 
948	 0,525046666869452 
949	 0,523545385840216 
950	 0,522281738331503 
951	 0,521971771085795 
952	 0,519886331648506 
953	 0,517740277200152 
954	 0,51786212315042 
955	 0,519195635954461 
956	 0,520089769627306 
957	 0,516908674833261 
958	 0,514387027206793 
959	 0,514126993494492 
960	 0,515104755816953 
961	 0,51510476504075 
962	 0,512870831973206 
963	 0,51271647261568 
964	 0,513657401246949 
965	 0,513268580029272 
966	 0,512451350406784 
967	 0,511842222338201 
968	 0,512894240053434 
969	 0,513363829451204 
970	 0,512446747764778 
971	 0,511548243985429 
972	 0,511081388532728 
973	 0,511326693637528 
974	 0,512113824077297 
975	 0,512732783642362 
976	 0,512006324182888 
977	 0,512473702193121 
978	 0,5144131399742 
979	 0,516387352217911 
980	 0,517121715937219 
981	 0,516280889360761 
982	 0,51626895321547 
983	 0,516736989485428 
984	 0,517033759581909 
985	 0,515968340895217 
986	 0,514900626009041 
987	 0,516817143237598 
988	 0,518956011605129 
989	 0,520168680165224 
990	 0,519643531290605 
991	 0,519101754047545 
992	 0,519474359512303 
993	 0,520026784558159 
994	 0,520887234147104 
995	 0,522089303779453 
996	 0,521566490637695 
997	 0,521069674667418 
998	 0,524782670218985 
999	 0,525177453019359 
1000	 0,522293706272488 
1001	 0,524310749892311 
1002	 0,527363917402568 
1003	 0,529269450418007 
1004	 0,529718365355902 
1005	 0,528914559257229 
1006	 0,527243719958256 
1007	 0,525415016535601 
1008	 0,524578167464514 
1009	 0,526255418382632 
1010	 0,528576577723014 
1011	 0,530764924163425 
1012	 0,532592260016198 
1013	 0,533329392445439 
1014	 0,532731533047567 
1015	 0,531050044587894 
1016	 0,531483373282861 
1017	 0,53596358721159 
1018	 0,537207751535581 
1019	 0,535936176004598 
1020	 0,535002216911838 
1021	 0,535497433557627 
1022	 0,536449839977964 
1023	 0,533897373914954 
1024	 0,532679144044449 
1025	 0,533830990329165 
1026	 0,533538235263829 
1027	 0,535414281865515 
1028	 0,540678176603343 
1029	 0,541079711820974 
1030	 0,537908263438122 
1031	 0,534434319006207 
1032	 0,538675066416448 
1033	 0,546597445833466 
1034	 0,546492316787983 
1035	 0,549646344232794 
1036	 0,554317260850147 
1037	 0,542523411273859 
1038	 0,534642352934873 
1039	 0,539414149774966 
1040	 0,548101223207022 
1041	 0,552241641250324 
1042	 0,546920782715887 
1043	 0,55082349899126 
1044	 0,555741363043359 
1045	 0,54784289545397 
1046	 0,546718401597982 
1047	 0,551445609331301 
1048	 0,549195625822178 
1049	 0,546799248227014 
1050	 0,546449766652468 
1051	 0,549231034869244 
1052	 0,552216515014543 
1053	 0,553014890545373 
1054	 0,54749990889118 
1055	 0,546450875824709 
1056	 0,556958052803474 
1057	 0,552103817940053 
1058	 0,545626021343668 
1059	 0,559495647097079 
1060	 0,558147087298379 
1061	 0,54458499975 
1062	 0,543786593723808 
1063	 0,550223354751101 
1064	 0,55974586491171 
1065	 0,561921439595292 
1066	 0,562748720092512 
1067	 0,563109038298887 
1068	 0,553311880175731 
1069	 0,542895372172105 
1070	 0,539478507860221 
1071	 0,546030634024048 
1072	 0,550640600147783 
1073	 0,540148987303994 
1074	 0,546261484498202 
1075	 0,559276018099548 
