Wavelength	PENFOUL00570.asd
325	 0,532705481520859 
326	 0,577591116173121 
327	 0,561472137146092 
328	 0,522860584067197 
329	 0,578103252744987 
330	 0,541411189122216 
331	 0,364954212341041 
332	 0,324446709777975 
333	 0,361392014432892 
334	 0,393576084107394 
335	 0,388618041946683 
336	 0,343722782878283 
337	 0,286964718287498 
338	 0,261459623614214 
339	 0,304237535462678 
340	 0,38358702686794 
341	 0,437991190830555 
342	 0,356304440125422 
343	 0,271423857276425 
344	 0,235089878722165 
345	 0,261299199144932 
346	 0,273832613595368 
347	 0,210123362986883 
348	 0,203336490243574 
349	 0,233517073724997 
350	 0,20559882088155 
351	 0,190617064005072 
352	 0,212037939026692 
353	 0,233208067266886 
354	 0,24435249568679 
355	 0,245186123256922 
356	 0,246642871545553 
357	 0,25042528729294 
358	 0,252194999047182 
359	 0,259040104400251 
360	 0,269603829344632 
361	 0,246801771483873 
362	 0,214893741054868 
363	 0,217028828885037 
364	 0,223440792098046 
365	 0,230821604798064 
366	 0,251211375834443 
367	 0,270956704694125 
368	 0,278693137939497 
369	 0,247400889767672 
370	 0,213648494917202 
371	 0,250476709475339 
372	 0,251237098415467 
373	 0,210203226841521 
374	 0,249644410688393 
375	 0,277788990063277 
376	 0,237634210732156 
377	 0,237137073946802 
378	 0,265886398201415 
379	 0,266507525981632 
380	 0,260700496738425 
381	 0,256189377156111 
382	 0,259868312302637 
383	 0,263976316469154 
384	 0,261205638595969 
385	 0,25011432133934 
386	 0,237536446207567 
387	 0,239690351280935 
388	 0,246018116714325 
389	 0,251966759464604 
390	 0,260187906254079 
391	 0,265028235531688 
392	 0,259694643296782 
393	 0,244148307631827 
394	 0,229285497499234 
395	 0,245667700614594 
396	 0,262118425033065 
397	 0,261828339364251 
398	 0,254128513108803 
399	 0,247644091892226 
400	 0,253246583868809 
401	 0,25147249793326 
402	 0,242869327476065 
403	 0,249448083548647 
404	 0,255274138509718 
405	 0,250596286273891 
406	 0,248041046556618 
407	 0,248029002919704 
408	 0,248015783135239 
409	 0,246595841601617 
410	 0,245331555805375 
411	 0,254071716278093 
412	 0,260742552164449 
413	 0,254290692339454 
414	 0,24924121772159 
415	 0,24874110817677 
416	 0,254174201483619 
417	 0,25645960912503 
418	 0,253020018196693 
419	 0,253678845463899 
420	 0,25388552480348 
421	 0,246895611199642 
422	 0,249477737538716 
423	 0,259995056221961 
424	 0,2600025234803 
425	 0,255966391266362 
426	 0,252317911565343 
427	 0,251187074888858 
428	 0,25110003686192 
429	 0,248413730732817 
430	 0,248360347341805 
431	 0,251575329577445 
432	 0,254026437953088 
433	 0,254924604302077 
434	 0,254042516698905 
435	 0,255770192917053 
436	 0,258600900458488 
437	 0,256609640754024 
438	 0,25402422856427 
439	 0,253052440206696 
440	 0,255808962279679 
441	 0,258509509044219 
442	 0,256228177577013 
443	 0,256572864247918 
444	 0,259060888764206 
445	 0,255566424420204 
446	 0,252415781029723 
447	 0,253463074660395 
448	 0,255714570264541 
449	 0,25804942752506 
450	 0,259048511187249 
451	 0,261149779686834 
452	 0,264180732453148 
453	 0,264347394368596 
454	 0,262342094626093 
455	 0,259194056002324 
456	 0,25778128918654 
457	 0,257748884566686 
458	 0,255990656654168 
459	 0,2564206930211 
460	 0,259906436989859 
461	 0,260953020277425 
462	 0,261235783666997 
463	 0,263679888943415 
464	 0,264320560881993 
465	 0,263075786372321 
466	 0,263070903998228 
467	 0,263601615209813 
468	 0,264144389559625 
469	 0,264358566296076 
470	 0,264240547548472 
471	 0,263754850081925 
472	 0,264484459369236 
473	 0,266586373115999 
474	 0,268608969454713 
475	 0,268456168076712 
476	 0,264478312058884 
477	 0,263282749446381 
478	 0,264706402651726 
479	 0,264109972656766 
480	 0,263722520252533 
481	 0,264552230174301 
482	 0,266579697501808 
483	 0,268190600876531 
484	 0,267161205600093 
485	 0,265629591016703 
486	 0,264586529160141 
487	 0,264960934124374 
488	 0,266150971201322 
489	 0,267442029145576 
490	 0,266506671134852 
491	 0,264567013529731 
492	 0,26525181038088 
493	 0,265819157497 
494	 0,265446132264269 
495	 0,264950773969555 
496	 0,264840050369386 
497	 0,265586666014391 
498	 0,265693255070024 
499	 0,265015736507038 
500	 0,263824388545719 
501	 0,264712625730098 
502	 0,268468277607101 
503	 0,269029402776494 
504	 0,267229977952662 
505	 0,265744908239738 
506	 0,26607758443135 
507	 0,268208839255496 
508	 0,269492745666838 
509	 0,269764226394534 
510	 0,269183086654679 
511	 0,271032738025255 
512	 0,274012873252015 
513	 0,272872267489215 
514	 0,273027572603107 
515	 0,27608522594289 
516	 0,276259599952876 
517	 0,275193473433685 
518	 0,275957757569675 
519	 0,276117515290206 
520	 0,275630489412383 
521	 0,276563118551635 
522	 0,277276535963041 
523	 0,276715821500597 
524	 0,27729404542492 
525	 0,278290410965984 
526	 0,27721808186802 
527	 0,276125386993429 
528	 0,275774447453383 
529	 0,276053602724455 
530	 0,276488081519603 
531	 0,276551745669629 
532	 0,2765083609336 
533	 0,276456230795585 
534	 0,276564913436983 
535	 0,27644972402117 
536	 0,276044520052142 
537	 0,276839017279636 
538	 0,277976453988499 
539	 0,277482028712232 
540	 0,277489294296491 
541	 0,278299867007117 
542	 0,278055954632585 
543	 0,277721743814295 
544	 0,278280267783691 
545	 0,278636651117396 
546	 0,278703589872418 
547	 0,278945783682759 
548	 0,278773955766592 
549	 0,278178883311304 
550	 0,279199798419976 
551	 0,280540164975561 
552	 0,279876615410423 
553	 0,279182448136999 
554	 0,279091370383136 
555	 0,279715604397591 
556	 0,280358099441098 
557	 0,280369674642116 
558	 0,279152979560849 
559	 0,277491057702721 
560	 0,277574714877731 
561	 0,277616465248425 
562	 0,277041386190538 
563	 0,276993701925559 
564	 0,276965940912621 
565	 0,27617498324221 
566	 0,275733229790024 
567	 0,27588819691393 
568	 0,276376801291751 
569	 0,276961482502661 
570	 0,277517881190374 
571	 0,278571508965281 
572	 0,280024593385311 
573	 0,281542197669154 
574	 0,28290214160818 
575	 0,284137973092798 
576	 0,285985217864235 
577	 0,287896447910943 
578	 0,289239486915513 
579	 0,29148990285269 
580	 0,294124276201857 
581	 0,294413864828032 
582	 0,294832256614797 
583	 0,296723075777041 
584	 0,298668355191831 
585	 0,300139600096259 
586	 0,300533968168121 
587	 0,301229467403754 
588	 0,302509634475791 
589	 0,303434732819224 
590	 0,304363478578791 
591	 0,305615744819091 
592	 0,30633151167763 
593	 0,306566877838859 
594	 0,30693903622874 
595	 0,307205884654511 
596	 0,307366930504247 
597	 0,308090900035533 
598	 0,308777441656507 
599	 0,308440734102293 
600	 0,3081330298456 
601	 0,308043440404792 
602	 0,307713979201398 
603	 0,307143480450359 
604	 0,306344545622731 
605	 0,305313135184929 
606	 0,304382295854897 
607	 0,30444760188452 
608	 0,30382182273181 
609	 0,302295892219293 
610	 0,30284280633715 
611	 0,303425865665131 
612	 0,301289537232785 
613	 0,299625577703008 
614	 0,299041096052809 
615	 0,298693565839309 
616	 0,298500473696966 
617	 0,298324319105608 
618	 0,297591621952078 
619	 0,296893684003158 
620	 0,297626254287089 
621	 0,297868078971512 
622	 0,297181847026067 
623	 0,296866656781906 
624	 0,296557098189474 
625	 0,295874069541839 
626	 0,296860532980414 
627	 0,298794651126209 
628	 0,29831219398777 
629	 0,297862485424586 
630	 0,29866335119319 
631	 0,299837474904213 
632	 0,300811583125523 
633	 0,300827433328097 
634	 0,301058421268488 
635	 0,301902496442194 
636	 0,303330183181553 
637	 0,304895938745679 
638	 0,306196740408026 
639	 0,307168867045124 
640	 0,307931498949148 
641	 0,30879835713465 
642	 0,309835698286983 
643	 0,31092361856837 
644	 0,311136573181074 
645	 0,311119972216377 
646	 0,311812329918904 
647	 0,31216088776782 
648	 0,311912376480745 
649	 0,311160431429543 
650	 0,310418922310634 
651	 0,309924462993059 
652	 0,308347925545617 
653	 0,306279312040282 
654	 0,305288822069759 
655	 0,304284631135649 
656	 0,302840349932945 
657	 0,300657615775626 
658	 0,298649166201635 
659	 0,297706737218222 
660	 0,295715420089277 
661	 0,292834196944054 
662	 0,290810444614726 
663	 0,289232792621386 
664	 0,287834583020863 
665	 0,28606969432157 
666	 0,284217355818976 
667	 0,282791307590066 
668	 0,281810962688329 
669	 0,281255904969366 
670	 0,281002645336366 
671	 0,28070132436644 
672	 0,280077692871473 
673	 0,279345212554002 
674	 0,278677577115447 
675	 0,278293311343353 
676	 0,278415258636513 
677	 0,278933322571235 
678	 0,278728719040814 
679	 0,278408276601014 
680	 0,278792242260775 
681	 0,279167906775102 
682	 0,27962557512518 
683	 0,280922439856734 
684	 0,282502785998375 
685	 0,284091371278223 
686	 0,28619363103998 
687	 0,288935348174924 
688	 0,292436511537554 
689	 0,296097052828728 
690	 0,30003442677657 
691	 0,305486417283639 
692	 0,311985584898163 
693	 0,319055935350513 
694	 0,326656953294092 
695	 0,334860637063512 
696	 0,344068111786609 
697	 0,353416353670827 
698	 0,362648017662953 
699	 0,372865396621271 
700	 0,383420570009398 
701	 0,39337308149032 
702	 0,403436076739594 
703	 0,413452321762174 
704	 0,422509142001315 
705	 0,431067817020003 
706	 0,439399131960801 
707	 0,447050050969081 
708	 0,454309929113819 
709	 0,461873910562346 
710	 0,468500298277506 
711	 0,473998546782218 
712	 0,479439562523609 
713	 0,484671704135081 
714	 0,489488363936911 
715	 0,493861566933119 
716	 0,497908106168166 
717	 0,501989943680167 
718	 0,5055950871708 
719	 0,508552891320828 
720	 0,511314783269512 
721	 0,513819616309034 
722	 0,51593770272021 
723	 0,518131125965435 
724	 0,520358157384226 
725	 0,522069020261325 
726	 0,523531767794235 
727	 0,524957874241104 
728	 0,526635386920018 
729	 0,528155366037201 
730	 0,528690071725179 
731	 0,529461287944871 
732	 0,530767594113374 
733	 0,532145992194854 
734	 0,533185571183237 
735	 0,53358654108853 
736	 0,534151616211063 
737	 0,53486758029146 
738	 0,535282802527797 
739	 0,535699975017295 
740	 0,536246608866883 
741	 0,537016545351469 
742	 0,537580062798417 
743	 0,537457556989629 
744	 0,537657856205374 
745	 0,538257984213415 
746	 0,53876893771008 
747	 0,538968723389742 
748	 0,538831481269582 
749	 0,539223696603261 
750	 0,539767496743471 
751	 0,539714116010084 
752	 0,539901433546795 
753	 0,54034646624088 
754	 0,54021360503703 
755	 0,540042575013247 
756	 0,540233316450754 
757	 0,540567280686149 
758	 0,540882627328728 
759	 0,540950165240377 
760	 0,540784764705326 
761	 0,540519273162683 
762	 0,540701975156752 
763	 0,541010393661523 
764	 0,541126948273515 
765	 0,541405166051976 
766	 0,541764478997877 
767	 0,541819111393496 
768	 0,541978760039785 
769	 0,542350390976026 
770	 0,54255591929919 
771	 0,542659137829835 
772	 0,542768379294955 
773	 0,542573000871777 
774	 0,542212005018833 
775	 0,542239555301679 
776	 0,542575221401416 
777	 0,54307836770113 
778	 0,543094958384439 
779	 0,542835463822046 
780	 0,542717480056698 
781	 0,542924852512375 
782	 0,543347713623123 
783	 0,543371962736743 
784	 0,543332688332281 
785	 0,543437164490319 
786	 0,543458360274128 
787	 0,543385540715529 
788	 0,543249079546341 
789	 0,543132875377522 
790	 0,543059954163927 
791	 0,542943733550386 
792	 0,542998039352908 
793	 0,543331601771094 
794	 0,543184653853669 
795	 0,542815763155723 
796	 0,543024683765556 
797	 0,543460899697488 
798	 0,543945650475835 
799	 0,544310955978057 
800	 0,544179986145927 
801	 0,54331238443431 
802	 0,543136681213471 
803	 0,543674576691055 
804	 0,544314742116166 
805	 0,544528644402842 
806	 0,544204638779687 
807	 0,544170804609512 
808	 0,544396184968695 
809	 0,544759473001882 
810	 0,544899784616836 
811	 0,544763770136967 
812	 0,544373932368663 
813	 0,544418000651521 
814	 0,545047424506579 
815	 0,545174135623267 
816	 0,544985352021207 
817	 0,544829330995181 
818	 0,544767402034711 
819	 0,544926335244536 
820	 0,545637432818523 
821	 0,546087137886207 
822	 0,545924025201939 
823	 0,545780017595399 
824	 0,545640960774988 
825	 0,545413258297014 
826	 0,546025332717021 
827	 0,546984408600295 
828	 0,545973150392459 
829	 0,545297625340618 
830	 0,545978074777905 
831	 0,546081341417066 
832	 0,545933884713357 
833	 0,546253357497689 
834	 0,546266315027287 
835	 0,545945564248248 
836	 0,545774429971035 
837	 0,54587770160985 
838	 0,546273243058553 
839	 0,546486680979638 
840	 0,546616286000521 
841	 0,546883337726545 
842	 0,547162874322453 
843	 0,54726849318851 
844	 0,546653510132899 
845	 0,546270744768864 
846	 0,54658552221042 
847	 0,546795566627995 
848	 0,546797611786402 
849	 0,546588301484564 
850	 0,546528395007383 
851	 0,546607925635753 
852	 0,546465303449326 
853	 0,546200630949486 
854	 0,545916654549146 
855	 0,54587568891916 
856	 0,546026925583755 
857	 0,546250891412776 
858	 0,546555732020103 
859	 0,546801456626327 
860	 0,546554837319801 
861	 0,546504300553224 
862	 0,546910729939708 
863	 0,546849291043101 
864	 0,546806722615167 
865	 0,547510506663769 
866	 0,547538981817327 
867	 0,547049976680224 
868	 0,547694185644744 
869	 0,547764539339611 
870	 0,546765528881448 
871	 0,546977094688687 
872	 0,547527676927638 
873	 0,54714840907686 
874	 0,546973655409675 
875	 0,547303130180179 
876	 0,54836682897243 
877	 0,54897872647941 
878	 0,548669875774573 
879	 0,548066527856716 
880	 0,547899754341672 
881	 0,54880118299929 
882	 0,548853114169138 
883	 0,548111586035011 
884	 0,547697118294176 
885	 0,547951692508732 
886	 0,548744407580877 
887	 0,548446762485823 
888	 0,54804265603948 
889	 0,548487423987826 
890	 0,548780521291702 
891	 0,54863851960207 
892	 0,54780362975473 
893	 0,547272407601603 
894	 0,547430230182027 
895	 0,548241074259658 
896	 0,54892285422956 
897	 0,54886665944276 
898	 0,548513885959235 
899	 0,54824687425788 
900	 0,548600023866152 
901	 0,548850511818008 
902	 0,548913465737689 
903	 0,549475569626596 
904	 0,549306914258672 
905	 0,547970394083279 
906	 0,548265443655339 
907	 0,549155357858437 
908	 0,548696072612586 
909	 0,548951697154366 
910	 0,549830928636847 
911	 0,549398743799768 
912	 0,549409771265667 
913	 0,550404187693396 
914	 0,550369619521455 
915	 0,549897048338503 
916	 0,549841096864112 
917	 0,550122689578402 
918	 0,550431024951117 
919	 0,550016074949047 
920	 0,549404725346345 
921	 0,548891365026682 
922	 0,548882085730554 
923	 0,548860093500261 
924	 0,548463389008094 
925	 0,548816435182126 
926	 0,54930100746643 
927	 0,548479541727524 
928	 0,548525366259356 
929	 0,549351740045595 
930	 0,548175602717604 
931	 0,547388222876295 
932	 0,548191424993338 
933	 0,54844672576283 
934	 0,548104781377377 
935	 0,547441482401155 
936	 0,547147235453525 
937	 0,547293770394413 
938	 0,547553924033631 
939	 0,54781144527988 
940	 0,547900570908724 
941	 0,547448431149782 
942	 0,546880140542349 
943	 0,546565003030757 
944	 0,545918062807129 
945	 0,545294826765026 
946	 0,545486190206268 
947	 0,546006220176015 
948	 0,5463154406886 
949	 0,545116089926387 
950	 0,543836069536293 
951	 0,543303642146735 
952	 0,54287500162036 
953	 0,54262741117218 
954	 0,542685553397998 
955	 0,542407080946373 
956	 0,541700622451699 
957	 0,540664328550286 
958	 0,540072001109371 
959	 0,540022380417156 
960	 0,539558729372886 
961	 0,538653594693787 
962	 0,537580784073103 
963	 0,538563572910956 
964	 0,540243310468724 
965	 0,540130577869787 
966	 0,539460392391433 
967	 0,539039305546902 
968	 0,540599511771832 
969	 0,541024514223377 
970	 0,539378319166683 
971	 0,538551321349089 
972	 0,538171652357979 
973	 0,537874772977268 
974	 0,539558128976622 
975	 0,541436635452402 
976	 0,53993160361982 
977	 0,538239660377421 
978	 0,537836412754002 
979	 0,540443550134014 
980	 0,542610846657233 
981	 0,542557228224338 
982	 0,541463081089579 
983	 0,54070327433167 
984	 0,541405798791218 
985	 0,540906451489307 
986	 0,539624707081937 
987	 0,539226705419887 
988	 0,540444272802563 
989	 0,542433774147508 
990	 0,541457898516628 
991	 0,540095599191778 
992	 0,539684788832256 
993	 0,538913191932669 
994	 0,539599388006929 
995	 0,543278613422655 
996	 0,544164675425738 
997	 0,543618186859622 
998	 0,546550726960217 
999	 0,546584556395171 
1000	 0,543698497444286 
1001	 0,544328859701258 
1002	 0,545915334676249 
1003	 0,547042355939287 
1004	 0,54754223431358 
1005	 0,546999994618323 
1006	 0,545345894263217 
1007	 0,545813878788049 
1008	 0,547012813401698 
1009	 0,545481832840088 
1010	 0,544795150916404 
1011	 0,545567715137172 
1012	 0,546346032044374 
1013	 0,548001984994918 
1014	 0,550433365160793 
1015	 0,551622530785997 
1016	 0,552051867640665 
1017	 0,552293596324521 
1018	 0,552572547976529 
1019	 0,553245134589331 
1020	 0,554713062167752 
1021	 0,556734354275279 
1022	 0,557205863424656 
1023	 0,549977486946012 
1024	 0,54849511780618 
1025	 0,554356068963825 
1026	 0,551611233751932 
1027	 0,549205025647152 
1028	 0,552839226482177 
1029	 0,558325715370109 
1030	 0,560456690078698 
1031	 0,554678618328047 
1032	 0,555725671391144 
1033	 0,561205491633407 
1034	 0,56030743764647 
1035	 0,556724658593803 
1036	 0,553567887806642 
1037	 0,559552382057578 
1038	 0,558817424662525 
1039	 0,548219898044888 
1040	 0,551612678830735 
1041	 0,557019035332345 
1042	 0,55503311812784 
1043	 0,561980558821142 
1044	 0,570153576708549 
1045	 0,566847845288881 
1046	 0,563839094126865 
1047	 0,563170374559995 
1048	 0,563494237475149 
1049	 0,562077310738842 
1050	 0,559302296687849 
1051	 0,560660701141104 
1052	 0,561736011586531 
1053	 0,561172385540429 
1054	 0,56480277543498 
1055	 0,568474188992643 
1056	 0,568198188100755 
1057	 0,565332071966542 
1058	 0,56474171178771 
1059	 0,57185911079579 
1060	 0,570373619820114 
1061	 0,563527653804568 
1062	 0,567430287222594 
1063	 0,571256375649985 
1064	 0,571608983628716 
1065	 0,567218014821174 
1066	 0,568280508307409 
1067	 0,575536987367181 
1068	 0,56659066388042 
1069	 0,556545046400134 
1070	 0,55643117945089 
1071	 0,558036165503045 
1072	 0,55808036060455 
1073	 0,554492969229862 
1074	 0,558825782206164 
1075	 0,568077937155126 
