Wavelength	PENFOUL00714.asd
325	 0,271964745254866 
326	 0,292833209726122 
327	 0,261724501588649 
328	 0,176643568847664 
329	 0,155043430073715 
330	 0,170271511377716 
331	 0,187057931790188 
332	 0,211917141271534 
333	 0,250190471668894 
334	 0,267018509177495 
335	 0,276022999660545 
336	 0,26802622432102 
337	 0,155305836749937 
338	 0,085975635638185 
339	 0,190463424235431 
340	 0,247211173026649 
341	 0,241921266675088 
342	 0,195346267546763 
343	 0,139596520955716 
344	 9,69694408382606E-02 
345	 0,117858271519929 
346	 0,128964660806368 
347	 6,79266786969323E-02 
348	 9,31003317214405E-02 
349	 0,158649150061443 
350	 9,18687542664279E-02 
351	 2,74122768181287E-02 
352	 1,78790749432641E-02 
353	 5,97988471555679E-02 
354	 9,97221620571958E-02 
355	 9,61477577074794E-02 
356	 9,62694216357302E-02 
357	 0,101434121137261 
358	 8,64289267941439E-02 
359	 7,18210467670388E-02 
360	 6,50977821453158E-02 
361	 6,11231708189955E-02 
362	 5,84653217392132E-02 
363	 0,055865713279826 
364	 5,78166062546687E-02 
365	 6,04605788855318E-02 
366	 4,61602992363129E-02 
367	 3,66812456317146E-02 
368	 4,37106900948661E-02 
369	 4,83475037073653E-02 
370	 5,64874717259639E-02 
371	 8,57602765979689E-02 
372	 6,92300237437612E-02 
373	 1,51760017439739E-02 
374	 5,44394577550692E-02 
375	 9,00896147414733E-02 
376	 6,02574368355588E-02 
377	 5,45935342660655E-02 
378	 0,069901857182009 
379	 6,84637653686999E-02 
380	 5,83713752596435E-02 
381	 4,60526529498516E-02 
382	 5,06098013949764E-02 
383	 5,65396997963805E-02 
384	 4,95307716421992E-02 
385	 3,84210792881798E-02 
386	 3,06550038802452E-02 
387	 3,90427853111934E-02 
388	 5,25628032243837E-02 
389	 6,27949097183904E-02 
390	 5,51768432788474E-02 
391	 4,23945744077842E-02 
392	 4,08964097683844E-02 
393	 3,68766327713057E-02 
394	 3,09030612032778E-02 
395	 3,29102008939053E-02 
396	 0,036796122796647 
397	 3,83803538415013E-02 
398	 0,031708096589171 
399	 2,83954583624074E-02 
400	 4,69807984284717E-02 
401	 4,39217295252876E-02 
402	 2,14580596754949E-02 
403	 3,22542748029948E-02 
404	 4,40644290535772E-02 
405	 3,65084717852574E-02 
406	 3,22069837869812E-02 
407	 0,031450609430321 
408	 2,76585720886548E-02 
409	 3,15537516179855E-02 
410	 4,13783202421623E-02 
411	 3,65789957405392E-02 
412	 2,97263074127708E-02 
413	 3,27426683109755E-02 
414	 2,57246151994047E-02 
415	 1,50466606806627E-02 
416	 2,73788244640263E-02 
417	 3,57129389324091E-02 
418	 3,13080111307997E-02 
419	 3,29242946080048E-02 
420	 3,57528541021621E-02 
421	 3,20355317346025E-02 
422	 2,92048886942263E-02 
423	 2,85398507332861E-02 
424	 0,028035447767048 
425	 2,76888756323353E-02 
426	 2,72361980567464E-02 
427	 2,49949311599726E-02 
428	 2,18359717619675E-02 
429	 1,96029162659551E-02 
430	 1,69903588342296E-02 
431	 1,54100204178443E-02 
432	 0,022526865765882 
433	 2,85601605630612E-02 
434	 2,53086081545923E-02 
435	 0,0209440337855 
436	 1,91967954178009E-02 
437	 2,59479477218198E-02 
438	 2,93061266036302E-02 
439	 2,57564545926584E-02 
440	 2,66616556530932E-02 
441	 0,02884030557621 
442	 2,70769071575364E-02 
443	 2,46647054957216E-02 
444	 2,29764885742344E-02 
445	 2,38428880050061E-02 
446	 2,48685454696912E-02 
447	 2,45577609827853E-02 
448	 2,38700867499593E-02 
449	 0,023569979521105 
450	 0,024878546191015 
451	 2,59807983887178E-02 
452	 2,61973307042804E-02 
453	 2,54542928878738E-02 
454	 0,024542917467432 
455	 2,41845691268266E-02 
456	 2,39702600363732E-02 
457	 0,023272475830604 
458	 0,020293447252538 
459	 1,88549051847761E-02 
460	 2,04310036399748E-02 
461	 0,022411459121377 
462	 2,46493655511401E-02 
463	 2,73531904332608E-02 
464	 2,69189576749079E-02 
465	 2,36418400650454E-02 
466	 2,17517126734532E-02 
467	 2,07064814305448E-02 
468	 0,020287104499179 
469	 2,18968735765915E-02 
470	 2,42289355046414E-02 
471	 2,45167766335176E-02 
472	 2,44084459864558E-02 
473	 2,46387630785652E-02 
474	 2,66552694465696E-02 
475	 2,67568448746438E-02 
476	 2,16109504538872E-02 
477	 1,93866538261961E-02 
478	 2,04732031388653E-02 
479	 2,09522282119076E-02 
480	 2,12259519729887E-02 
481	 2,14383910975888E-02 
482	 2,21289230200321E-02 
483	 2,31125366527132E-02 
484	 2,41005302976812E-02 
485	 2,40165070263461E-02 
486	 0,02315606424925 
487	 2,38403504757232E-02 
488	 2,44751365348784E-02 
489	 2,38558889380865E-02 
490	 2,29377437523803E-02 
491	 2,20312766462714E-02 
492	 2,13762510730221E-02 
493	 2,08926323889769E-02 
494	 2,06750024886941E-02 
495	 2,13151878992458E-02 
496	 2,19088251612816E-02 
497	 2,14325221540475E-02 
498	 2,09004778740344E-02 
499	 2,08074794295449E-02 
500	 2,19290008841916E-02 
501	 2,28690284345511E-02 
502	 2,27292204679625E-02 
503	 2,13397040591343E-02 
504	 1,97336979267893E-02 
505	 1,96421311914189E-02 
506	 1,98290342400521E-02 
507	 2,02307397639458E-02 
508	 2,23972864605928E-02 
509	 2,38702524456444E-02 
510	 0,022582473327898 
511	 2,16480182155564E-02 
512	 2,13255733530935E-02 
513	 2,02529241871947E-02 
514	 0,020697202728329 
515	 2,30863122828674E-02 
516	 2,35319478686656E-02 
517	 2,29525939088335E-02 
518	 2,31988944709207E-02 
519	 2,30998431837908E-02 
520	 2,25671549987813E-02 
521	 2,21338364552492E-02 
522	 2,21355823373643E-02 
523	 2,27130202833247E-02 
524	 2,27499621689874E-02 
525	 2,23150084584297E-02 
526	 2,19378779518949E-02 
527	 2,17485090761447E-02 
528	 2,18664374821952E-02 
529	 2,26027513483643E-02 
530	 2,28476083829658E-02 
531	 0,02137715162532 
532	 2,08369353955439E-02 
533	 2,14599169341159E-02 
534	 2,19808741131329E-02 
535	 2,20504312210158E-02 
536	 2,15422450841857E-02 
537	 0,021401733264483 
538	 0,021770377869375 
539	 2,27309064871106E-02 
540	 2,30640165677377E-02 
541	 2,24674972905312E-02 
542	 2,15330570940251E-02 
543	 2,11160683040373E-02 
544	 0,021934756512425 
545	 2,22981029462282E-02 
546	 2,20703206693003E-02 
547	 2,19874224493563E-02 
548	 2,16635880339925E-02 
549	 2,10820660003267E-02 
550	 2,12892845012672E-02 
551	 2,19095474881706E-02 
552	 2,22449922707751E-02 
553	 2,15825081843031E-02 
554	 2,02809132054443E-02 
555	 2,06100798658136E-02 
556	 2,14269486974484E-02 
557	 0,021726305228437 
558	 2,19069851748634E-02 
559	 2,20796024459163E-02 
560	 2,24987490739313E-02 
561	 2,23977873248773E-02 
562	 2,16250679297991E-02 
563	 2,14029993288937E-02 
564	 2,11134968616577E-02 
565	 0,019791462419232 
566	 1,94234883491053E-02 
567	 2,02674539760922E-02 
568	 2,14065703495333E-02 
569	 0,022000269210615 
570	 2,15125122183257E-02 
571	 2,08327143006675E-02 
572	 2,06596478954716E-02 
573	 2,23630444889125E-02 
574	 2,25404647064149E-02 
575	 2,06703424854296E-02 
576	 2,10502813018373E-02 
577	 0,022358845966709 
578	 2,27693631887669E-02 
579	 2,30581597450075E-02 
580	 2,33167583026225E-02 
581	 2,34387891171179E-02 
582	 2,33677602381889E-02 
583	 2,31640381463356E-02 
584	 2,35795625692051E-02 
585	 2,40444532298301E-02 
586	 2,33242370028447E-02 
587	 2,33645256305478E-02 
588	 0,024365126248486 
589	 2,43449373920611E-02 
590	 2,42427867543348E-02 
591	 2,49530956400746E-02 
592	 2,50973390599025E-02 
593	 2,48603731691993E-02 
594	 2,55469615064402E-02 
595	 2,59485744841798E-02 
596	 2,56103683080209E-02 
597	 2,55256459247348E-02 
598	 2,55883680495429E-02 
599	 2,54771526263492E-02 
600	 2,53819350978895E-02 
601	 2,52326593465453E-02 
602	 2,44837623724885E-02 
603	 2,41259518568418E-02 
604	 2,48340712541262E-02 
605	 2,48619067400148E-02 
606	 2,43728378343605E-02 
607	 0,024602208212456 
608	 2,43916238279676E-02 
609	 2,36767025135212E-02 
610	 0,024753599144694 
611	 2,57004986524233E-02 
612	 2,39794608050224E-02 
613	 2,27618358852632E-02 
614	 2,26401797973304E-02 
615	 2,27088820225288E-02 
616	 2,29127956933969E-02 
617	 2,31780349878947E-02 
618	 2,34306067428739E-02 
619	 2,36366412493178E-02 
620	 2,37826770601674E-02 
621	 2,38396978398408E-02 
622	 2,37285867009253E-02 
623	 2,31513057800351E-02 
624	 2,24514121132491E-02 
625	 2,20221987061295E-02 
626	 2,24366543040399E-02 
627	 2,32627399458467E-02 
628	 2,28670555578854E-02 
629	 0,022585335196125 
630	 2,30663552419749E-02 
631	 2,37046368373058E-02 
632	 2,41822994137319E-02 
633	 2,41363372594361E-02 
634	 2,37534569398813E-02 
635	 2,33466866477306E-02 
636	 2,38170111832661E-02 
637	 2,45396994229297E-02 
638	 2,49647099790399E-02 
639	 2,55210375112166E-02 
640	 2,59995293726067E-02 
641	 0,025661742095222 
642	 2,55343261304214E-02 
643	 2,59682356119244E-02 
644	 0,02630800435853 
645	 2,63698035453268E-02 
646	 2,60050129771733E-02 
647	 2,56146915294399E-02 
648	 2,53578892659647E-02 
649	 2,52433767251843E-02 
650	 2,55162230464767E-02 
651	 2,62199817469312E-02 
652	 2,62952172150891E-02 
653	 2,57659529581288E-02 
654	 2,49948002270058E-02 
655	 2,43871261728055E-02 
656	 2,41234258557005E-02 
657	 2,40352776145836E-02 
658	 2,42134501097216E-02 
659	 2,47019179939347E-02 
660	 2,39401028420051E-02 
661	 2,24178879896812E-02 
662	 2,25502714634485E-02 
663	 2,26947045448038E-02 
664	 2,21320531798142E-02 
665	 2,20724551982041E-02 
666	 0,021914885067822 
667	 2,04790585036649E-02 
668	 1,99476186612132E-02 
669	 2,05909955229587E-02 
670	 2,08173931243504E-02 
671	 2,08046711979373E-02 
672	 2,07373061362435E-02 
673	 2,08021738617678E-02 
674	 2,08838228901052E-02 
675	 2,05273804225479E-02 
676	 2,05816342135828E-02 
677	 2,11774012512915E-02 
678	 2,11571398125014E-02 
679	 2,08177130360798E-02 
680	 2,06273615719769E-02 
681	 2,05281003625815E-02 
682	 2,06201082185984E-02 
683	 2,13027572538498E-02 
684	 2,15004336690427E-02 
685	 2,07817903853294E-02 
686	 0,021211856205287 
687	 2,23387284743647E-02 
688	 2,28828617870713E-02 
689	 2,32301612525136E-02 
690	 2,36489162253609E-02 
691	 2,48080320852284E-02 
692	 2,63329241944465E-02 
693	 2,78734190758257E-02 
694	 2,98058015075361E-02 
695	 3,19756992188813E-02 
696	 3,37475607537249E-02 
697	 0,036129523348752 
698	 3,94782106837543E-02 
699	 4,30112550661449E-02 
700	 4,70382027561423E-02 
701	 5,20377297391879E-02 
702	 5,71915984201328E-02 
703	 6,22818810608606E-02 
704	 6,73861869192513E-02 
705	 7,28520568486421E-02 
706	 7,88198025453235E-02 
707	 8,45199209334364E-02 
708	 8,98116973569435E-02 
709	 9,46706006057858E-02 
710	 0,099414092163835 
711	 0,104231874159061 
712	 0,109421853535023 
713	 0,114399425150755 
714	 0,118617562987288 
715	 0,122647432854859 
716	 0,126580893452333 
717	 0,130379947658184 
718	 0,133909516744598 
719	 0,137094673896522 
720	 0,13995433000569 
721	 0,142577821552994 
722	 0,145076824714073 
723	 0,147846879063111 
724	 0,150710861919349 
725	 0,152830119259586 
726	 0,154349214904053 
727	 0,155507138390876 
728	 0,157419091215258 
729	 0,159588475696112 
730	 0,160869635128633 
731	 0,161756088692221 
732	 0,162548739433514 
733	 0,163894458832162 
734	 0,165222813757375 
735	 0,16601468079036 
736	 0,166499762842209 
737	 0,166966573354106 
738	 0,168035534118797 
739	 0,168985591235907 
740	 0,169552173424141 
741	 0,170019818939664 
742	 0,170297362164268 
743	 0,170271580751658 
744	 0,170620836392445 
745	 0,171331033656289 
746	 0,171871466231548 
747	 0,172171553656409 
748	 0,172280234573248 
749	 0,172976655286096 
750	 0,173747781470985 
751	 0,173657344469836 
752	 0,173935257663948 
753	 0,174604667134787 
754	 0,174390159383036 
755	 0,174158677050591 
756	 0,174537368388492 
757	 0,17502986539011 
758	 0,175447846241386 
759	 0,175565561231651 
760	 0,175740759504062 
761	 0,176076655601258 
762	 0,176495449178292 
763	 0,176655832148905 
764	 0,176295045864647 
765	 0,176333959418992 
766	 0,176712997462701 
767	 0,176736398884949 
768	 0,177020349614451 
769	 0,177621516007322 
770	 0,177446971109499 
771	 0,17716082706424 
772	 0,177628715348895 
773	 0,177833456786872 
774	 0,177697590865689 
775	 0,177651520064452 
776	 0,177948485565249 
777	 0,178583884440526 
778	 0,178463406735228 
779	 0,178061933834419 
780	 0,178249651051737 
781	 0,178533844171696 
782	 0,17875969483864 
783	 0,17884297933661 
784	 0,17889344962031 
785	 0,178958984047876 
786	 0,178732931793008 
787	 0,178548462915175 
788	 0,179089711991512 
789	 0,179217859075855 
790	 0,178822612388242 
791	 0,179015986654027 
792	 0,179227514496705 
793	 0,179020832601813 
794	 0,179053609000626 
795	 0,179263869125822 
796	 0,179313303505465 
797	 0,179176707182087 
798	 0,178911817105558 
799	 0,178872551193078 
800	 0,17890436361428 
801	 0,178855043514646 
802	 0,178909865036673 
803	 0,179116981311365 
804	 0,179567730376534 
805	 0,179761816138056 
806	 0,17961878608645 
807	 0,179857169193758 
808	 0,180236878490064 
809	 0,180449882825307 
810	 0,180660447479604 
811	 0,180863272385102 
812	 0,180988739597699 
813	 0,18098532976461 
814	 0,180886445808247 
815	 0,181032183079404 
816	 0,181188420029898 
817	 0,181045770382424 
818	 0,180615829312525 
819	 0,180269900857904 
820	 0,181069843798041 
821	 0,18194551256824 
822	 0,182291221207575 
823	 0,18194417506029 
824	 0,181563333771828 
825	 0,182000588745666 
826	 0,182693136316149 
827	 0,183302411713742 
828	 0,183251911839312 
829	 0,183121722641108 
830	 0,183179171321362 
831	 0,182895720537732 
832	 0,182825332479058 
833	 0,183762346926987 
834	 0,183849017897055 
835	 0,183131038309932 
836	 0,183351180972103 
837	 0,183804729303866 
838	 0,184067621415384 
839	 0,183920646810603 
840	 0,183785527898137 
841	 0,18428520608143 
842	 0,184435685574726 
843	 0,184174658611095 
844	 0,184119388915243 
845	 0,184322785192295 
846	 0,184775419304977 
847	 0,185179034221978 
848	 0,185255449831176 
849	 0,184693488527577 
850	 0,184600400968176 
851	 0,184963149638806 
852	 0,184765720151756 
853	 0,184220974921481 
854	 0,183592011744585 
855	 0,183849647176279 
856	 0,184331541283397 
857	 0,183994707269511 
858	 0,184016442055085 
859	 0,184463191181993 
860	 0,184639195419168 
861	 0,184667482100568 
862	 0,184625308002327 
863	 0,184605038800518 
864	 0,184814001431841 
865	 0,185478816033465 
866	 0,185732196882167 
867	 0,185577931933478 
868	 0,185776993882603 
869	 0,185668061144205 
870	 0,185128436090891 
871	 0,185338312219649 
872	 0,185890858430991 
873	 0,186154191966849 
874	 0,185951816654541 
875	 0,185650518248165 
876	 0,186437957023012 
877	 0,187279713940997 
878	 0,187641492973725 
879	 0,187286703909292 
880	 0,186893545677658 
881	 0,18718967838241 
882	 0,187441306997069 
883	 0,187583133619381 
884	 0,187824516365 
885	 0,188182374451621 
886	 0,188580465606463 
887	 0,188570709606775 
888	 0,188594380359999 
889	 0,18905772976275 
890	 0,189412301930751 
891	 0,189592819387375 
892	 0,189710461906436 
893	 0,189632791679492 
894	 0,189364335265754 
895	 0,18903256615652 
896	 0,188967606753428 
897	 0,189341726530794 
898	 0,189187072985784 
899	 0,188977782168813 
900	 0,189842994895752 
901	 0,190236550233734 
902	 0,189971999964747 
903	 0,190164721353327 
904	 0,190371920698042 
905	 0,190318030027495 
906	 0,190169561347329 
907	 0,189858090811969 
908	 0,189266930026175 
909	 0,190011615773404 
910	 0,191529649558527 
911	 0,190721551200737 
912	 0,190139297804023 
913	 0,190850375240944 
914	 0,191547745826842 
915	 0,191640606594926 
916	 0,190703342167319 
917	 0,190733679322301 
918	 0,19143277297603 
919	 0,190981113547741 
920	 0,190204559015715 
921	 0,189616222648379 
922	 0,190263010092049 
923	 0,190928429054834 
924	 0,190587024058091 
925	 0,190013655861212 
926	 0,189536680089998 
927	 0,189522830696656 
928	 0,189148535911981 
929	 0,188453334321867 
930	 0,188516492466627 
931	 0,18850722109666 
932	 0,188037800643826 
933	 0,188127640327747 
934	 0,188148283035673 
935	 0,187216023270247 
936	 0,186921167932478 
937	 0,187215127085223 
938	 0,186977806564053 
939	 0,186412344457769 
940	 0,185587976349566 
941	 0,184508362421397 
942	 0,183931135229502 
943	 0,184351791901811 
944	 0,183626233150785 
945	 0,182586524131954 
946	 0,183504929357356 
947	 0,183059664042632 
948	 0,180957990204764 
949	 0,179897998302104 
950	 0,178536260641907 
951	 0,17643861551182 
952	 0,175761694431668 
953	 0,175887100064807 
954	 0,175757742963781 
955	 0,174923524301906 
956	 0,17334266999275 
957	 0,17102114583542 
958	 0,170287091509145 
959	 0,171563509231251 
960	 0,172730064329336 
961	 0,172345226801346 
962	 0,169814758657012 
963	 0,169219799002247 
964	 0,170089906367787 
965	 0,170748731559235 
966	 0,169590202052643 
967	 0,167736393238941 
968	 0,170494049224317 
969	 0,171039830743949 
970	 0,167453014988861 
971	 0,166369244808162 
972	 0,166574820292419 
973	 0,166597622476698 
974	 0,167300022266581 
975	 0,167999847991631 
976	 0,167323033687029 
977	 0,167992420553636 
978	 0,169905045905981 
979	 0,17008926078673 
980	 0,169626488399002 
981	 0,169406764540504 
982	 0,171436025810725 
983	 0,172800112822214 
984	 0,170669789911603 
985	 0,169030076298338 
986	 0,169267765984396 
987	 0,172536539013812 
988	 0,174675682846586 
989	 0,174540342881879 
990	 0,173218506440499 
991	 0,172174872652258 
992	 0,172191726216888 
993	 0,172108936081823 
994	 0,172793745630792 
995	 0,174958833948446 
996	 0,175036513824825 
997	 0,173951097928774 
998	 0,174795261026698 
999	 0,175257596999933 
1000	 0,175318473390955 
1001	 0,177270926252684 
1002	 0,178583671983565 
1003	 0,178494604178309 
1004	 0,180926341583284 
1005	 0,182154390785907 
1006	 0,178881262161643 
1007	 0,178572044095796 
1008	 0,180050882295858 
1009	 0,178856700307527 
1010	 0,179780444802643 
1011	 0,182357314453536 
1012	 0,180576177118131 
1013	 0,181268959839018 
1014	 0,18585394125857 
1015	 0,185594674626455 
1016	 0,18259796412992 
1017	 0,179818462208697 
1018	 0,183225200909927 
1019	 0,188597987457041 
1020	 0,188493576555699 
1021	 0,185558879536987 
1022	 0,182657598469169 
1023	 0,18606255344611 
1024	 0,189036798604591 
1025	 0,189653889924096 
1026	 0,190493813865375 
1027	 0,191223687947931 
1028	 0,191858221473717 
1029	 0,194179070083581 
1030	 0,195450267354385 
1031	 0,192649631680403 
1032	 0,191111253859954 
1033	 0,191754630461554 
1034	 0,193912897007929 
1035	 0,20032793044304 
1036	 0,20727154807922 
1037	 0,198736924437503 
1038	 0,192973235071138 
1039	 0,197115681712748 
1040	 0,200058882848993 
1041	 0,198641266364038 
1042	 0,192814523569987 
1043	 0,201287459447433 
1044	 0,212963769799477 
1045	 0,209728153552143 
1046	 0,201361093284302 
1047	 0,195014976145577 
1048	 0,202981874449821 
1049	 0,203954467833939 
1050	 0,195539659082204 
1051	 0,195460121956022 
1052	 0,196582524247811 
1053	 0,19708657965738 
1054	 0,208025841064568 
1055	 0,215756497544318 
1056	 0,208915093397003 
1057	 0,202428673546517 
1058	 0,204769848991615 
1059	 0,222567658448622 
1060	 0,225261413453295 
1061	 0,214769578473082 
1062	 0,212465442412763 
1063	 0,214930199052761 
1064	 0,21934100110152 
1065	 0,216985853954827 
1066	 0,215167650236437 
1067	 0,216882762230005 
1068	 0,219018247720504 
1069	 0,21933488063913 
1070	 0,216455111478036 
1071	 0,211993135287457 
1072	 0,206787235907823 
1073	 0,202897387268042 
1074	 0,21265382152059 
1075	 0,225105778847028 
