Wavelength	PENFOUL00297.asd
325	 0,26050514081359 
326	 0,289916300259575 
327	 0,24623559180978 
328	 0,162612816943267 
329	 0,169551265529151 
330	 0,186606670960326 
331	 0,153439120745126 
332	 9,81143066308237E-02 
333	 3,74183571733778E-02 
334	 0,118553010962772 
335	 0,166068628288083 
336	 0,127509967958706 
337	 9,56981753041992E-03 
338	-3,42852953320291E-02 
339	 0,116027433520205 
340	 0,201259533215909 
341	 0,202646595234042 
342	 0,132173965785955 
343	 7,10082261954959E-02 
344	 5,36763045324339E-02 
345	 7,91939549188225E-02 
346	 9,20752623263312E-02 
347	 4,92312238157048E-02 
348	 8,31034492932357E-02 
349	 0,147132991059962 
350	 6,94081049907927E-02 
351	 9,40454138139882E-03 
352	 2,41443994493241E-02 
353	 6,56192572614656E-02 
354	 8,76780366118708E-02 
355	 6,02978884829193E-02 
356	 2,11950677166766E-02 
357	-2,50209541875289E-04 
358	 6,60821009578061E-02 
359	 8,27186076425378E-02 
360	 9,20193476883915E-03 
361	-6,23435771679956E-03 
362	 2,97695174893313E-02 
363	 7,67130659156034E-02 
364	 8,29501955056933E-02 
365	 4,90455126539634E-02 
366	 1,66252450564209E-02 
367	 1,46197957572432E-02 
368	 5,02087114473643E-02 
369	 4,45294117647059E-02 
370	 1,84289317230374E-02 
371	 2,86190234666894E-02 
372	 0,021245336046906 
373	 3,12543629964018E-04 
374	 5,41508435176874E-02 
375	 8,39123049776832E-02 
376	 0,030786349309838 
377	 1,83059914439388E-02 
378	 4,09593118399772E-02 
379	 3,99870327741182E-02 
380	 3,42670719256451E-02 
381	 0,029025876574651 
382	 2,45075713230573E-02 
383	 2,40732009105816E-02 
384	 2,99319743015675E-02 
385	 2,94593793963615E-02 
386	 2,34753054937301E-02 
387	 1,92527305305001E-02 
388	 2,33275822082444E-02 
389	 3,52277343463196E-02 
390	 0,038092379364429 
391	 3,71267856852406E-02 
392	 3,98565777512641E-02 
393	 3,27779910998965E-02 
394	 0,019118627343645 
395	 1,51756641005975E-02 
396	 1,52518479396191E-02 
397	 1,61155133017479E-02 
398	 1,61381657611289E-02 
399	 1,79605310625929E-02 
400	 2,59913346477373E-02 
401	 3,07738959761045E-02 
402	 3,07491606278938E-02 
403	 0,029734753766942 
404	 2,84168120031049E-02 
405	 0,027424492562994 
406	 2,90064426454358E-02 
407	 3,07759033026148E-02 
408	 2,71602738526306E-02 
409	 2,35510325079318E-02 
410	 0,022180927039838 
411	 2,47392257564183E-02 
412	 2,80489221016968E-02 
413	 2,88652165014206E-02 
414	 2,34759785679473E-02 
415	 1,65774524338489E-02 
416	 2,27512895674331E-02 
417	 0,025083999978997 
418	 1,91581186233615E-02 
419	 2,29141242635173E-02 
420	 2,77091610824983E-02 
421	 2,13216499447808E-02 
422	 1,89278810465712E-02 
423	 2,21010466951139E-02 
424	 2,33275501199414E-02 
425	 0,024504667803074 
426	 2,64418480387864E-02 
427	 2,66741558107014E-02 
428	 2,44983065440021E-02 
429	 1,88425406831265E-02 
430	 0,015673671146688 
431	 1,67767405201242E-02 
432	 2,07882768188373E-02 
433	 2,37056784098296E-02 
434	 2,23133462604934E-02 
435	 1,88205643794183E-02 
436	 1,62716987147508E-02 
437	 2,09126368553308E-02 
438	 2,65522324076412E-02 
439	 0,029587483861285 
440	 0,026123200207753 
441	 2,10346132270814E-02 
442	 2,08300390602102E-02 
443	 2,01386846729882E-02 
444	 1,87043376527713E-02 
445	 1,99853814163782E-02 
446	 2,12501995107456E-02 
447	 2,07073072874497E-02 
448	 1,83490437048293E-02 
449	 0,016433347620741 
450	 0,019102683770389 
451	 2,24229749356441E-02 
452	 2,46658204889556E-02 
453	 2,48989487181799E-02 
454	 2,28567238673771E-02 
455	 1,87462802401596E-02 
456	 1,86129995921165E-02 
457	 2,05517568857636E-02 
458	 1,54987798238154E-02 
459	 0,013778712637656 
460	 0,01858788912219 
461	 2,01851970174569E-02 
462	 2,03249593900366E-02 
463	 0,022584831200162 
464	 2,30272683903781E-02 
465	 2,14147921576091E-02 
466	 2,00999898250481E-02 
467	 1,98669023974833E-02 
468	 2,09964054045379E-02 
469	 2,09989000837625E-02 
470	 2,03026725103056E-02 
471	 2,04008740010976E-02 
472	 2,15191696913998E-02 
473	 2,33877466308854E-02 
474	 2,46855543502629E-02 
475	 2,41688954735542E-02 
476	 2,09136238284285E-02 
477	 1,89532685770224E-02 
478	 1,89506063995153E-02 
479	 2,01708585052591E-02 
480	 2,09948815583166E-02 
481	 2,07085122000208E-02 
482	 2,06278207010192E-02 
483	 2,11217493424596E-02 
484	 2,25506813119942E-02 
485	 2,30619230685693E-02 
486	 2,22134842533494E-02 
487	 2,02567460046945E-02 
488	 1,95490028683637E-02 
489	 2,15387197139314E-02 
490	 2,15399489510902E-02 
491	 2,00736174220993E-02 
492	 1,99955899970757E-02 
493	 2,07289681580639E-02 
494	 2,17002681687064E-02 
495	 2,05102400713044E-02 
496	 1,93742496504358E-02 
497	 2,08991196969506E-02 
498	 0,020423519690946 
499	 1,86131593571151E-02 
500	 0,020998843186676 
501	 2,27321954850142E-02 
502	 2,13603065739007E-02 
503	 2,09471130289485E-02 
504	 0,020851618278724 
505	 1,88615124535391E-02 
506	 1,85255712258694E-02 
507	 2,01434154610528E-02 
508	 2,02644287024125E-02 
509	 1,93708077915426E-02 
510	 1,81881246387702E-02 
511	 1,94797567613878E-02 
512	 2,20220837974716E-02 
513	 2,12928430569776E-02 
514	 2,04775117051802E-02 
515	 2,07991834854667E-02 
516	 0,020758699105549 
517	 2,04316075760007E-02 
518	 2,01004952331866E-02 
519	 2,00648631358273E-02 
520	 0,02032706409372 
521	 2,05800161875514E-02 
522	 2,07140921748595E-02 
523	 2,06572133399108E-02 
524	 2,05290011753478E-02 
525	 2,03746300513707E-02 
526	 2,01089436137914E-02 
527	 0,020533939326879 
528	 2,16432810341153E-02 
529	 2,19038966656357E-02 
530	 2,15784464766068E-02 
531	 2,11144428946158E-02 
532	 0,020822793613655 
533	 2,07646163373496E-02 
534	 2,08640046239025E-02 
535	 0,020554724071389 
536	 0,019710577662111 
537	 2,02467395626495E-02 
538	 2,14684017333552E-02 
539	 2,17024867826208E-02 
540	 2,14404648216133E-02 
541	 2,08158851691741E-02 
542	 1,97359485274871E-02 
543	 1,92476719277897E-02 
544	 2,02768326655704E-02 
545	 2,10563016280182E-02 
546	 2,11544214315018E-02 
547	 2,05221097680583E-02 
548	 1,97663796078964E-02 
549	 1,94389112074812E-02 
550	 0,02081842532159 
551	 2,25204723829238E-02 
552	 2,22889705112669E-02 
553	 2,11579954068024E-02 
554	 1,98994197470288E-02 
555	 2,01166121035073E-02 
556	 2,12252977601853E-02 
557	 2,25507938224555E-02 
558	 2,25706479333133E-02 
559	 2,15635908288279E-02 
560	 2,08552639909996E-02 
561	 0,02081111461198 
562	 0,021494404910776 
563	 2,19849115803119E-02 
564	 2,17487784662421E-02 
565	 0,020229573166561 
566	 1,95780363961929E-02 
567	 2,01754927722287E-02 
568	 2,11517293867681E-02 
569	 2,18889425708792E-02 
570	 2,19308815339058E-02 
571	 2,14321489550166E-02 
572	 2,09916000736496E-02 
573	 2,19700151489114E-02 
574	 0,021830684166206 
575	 2,02554862624646E-02 
576	 2,06516231287034E-02 
577	 2,18174980579625E-02 
578	 2,21388678008672E-02 
579	 2,25581617815439E-02 
580	 2,29720420333038E-02 
581	 2,24285019519436E-02 
582	 2,21770265715409E-02 
583	 2,28558624902942E-02 
584	 2,34156016035024E-02 
585	 2,35349796331934E-02 
586	 2,28583310670576E-02 
587	 2,27946342779933E-02 
588	 2,35544236512679E-02 
589	 2,38607520467536E-02 
590	 2,40748420359201E-02 
591	 0,02452406392068 
592	 2,38997821224433E-02 
593	 2,28886608120842E-02 
594	 2,41447326817509E-02 
595	 2,48756684143256E-02 
596	 2,40293252769889E-02 
597	 2,40278735236114E-02 
598	 2,44230846600469E-02 
599	 2,41763728102721E-02 
600	 2,35426406738155E-02 
601	 2,28299707926908E-02 
602	 2,28459903125347E-02 
603	 2,34691846072901E-02 
604	 2,44396102723968E-02 
605	 2,41413066480902E-02 
606	 2,31246517065375E-02 
607	 2,35043297686562E-02 
608	 0,023499641632939 
609	 2,27801272075071E-02 
610	 0,023400223683046 
611	 2,42578193580598E-02 
612	 2,38180251083771E-02 
613	 2,26495994913306E-02 
614	 2,13791257231815E-02 
615	 2,13937129479515E-02 
616	 2,21731307330185E-02 
617	 2,32486441674968E-02 
618	 2,38352087953744E-02 
619	 0,023866177682537 
620	 2,34703540767319E-02 
621	 2,32317673271456E-02 
622	 2,32815784228327E-02 
623	 2,30647983839361E-02 
624	 2,26572435442474E-02 
625	 2,22028548332446E-02 
626	 2,26037781549919E-02 
627	 2,34117011384484E-02 
628	 2,27004803415498E-02 
629	 2,21947612869616E-02 
630	 2,27187621818382E-02 
631	 2,33069996102339E-02 
632	 2,37173036615867E-02 
633	 2,37768206925725E-02 
634	 0,023530239740498 
635	 2,32376468323865E-02 
636	 2,37868279107993E-02 
637	 2,45509207371701E-02 
638	 2,49652188718629E-02 
639	 0,025244487665403 
640	 2,53585066756866E-02 
641	 2,50891903689404E-02 
642	 2,51448901584072E-02 
643	 2,56687310095708E-02 
644	 2,55188825837927E-02 
645	 2,52552682598409E-02 
646	 2,57321143069058E-02 
647	 2,60089885537318E-02 
648	 2,58664791809355E-02 
649	 2,52998350678835E-02 
650	 2,53144402694976E-02 
651	 0,026388537020459 
652	 0,026290818917415 
653	 2,53728867077907E-02 
654	 2,49990884774237E-02 
655	 2,50136411664133E-02 
656	 0,025225707279259 
657	 2,46889341575349E-02 
658	 2,41864509810687E-02 
659	 2,45443299499276E-02 
660	 2,44433483416181E-02 
661	 2,39135895046753E-02 
662	 0,023902389292636 
663	 2,38204705920126E-02 
664	 2,34719232494259E-02 
665	 2,37512991517532E-02 
666	 2,38859640223641E-02 
667	 2,24902545992525E-02 
668	 2,19090409471065E-02 
669	 2,24528476076293E-02 
670	 2,24175391418958E-02 
671	 2,24280929666813E-02 
672	 0,022919102346702 
673	 2,25848047893439E-02 
674	 2,16809769308543E-02 
675	 0,021158832094111 
676	 2,16421536772431E-02 
677	 2,30138837143162E-02 
678	 0,023020302299015 
679	 2,25107111414114E-02 
680	 2,27141397389441E-02 
681	 2,29447261291614E-02 
682	 2,30849804656934E-02 
683	 2,32650852764137E-02 
684	 2,32270202232399E-02 
685	 2,29295295208644E-02 
686	 2,33159531434636E-02 
687	 2,40411588656956E-02 
688	 2,42651224310629E-02 
689	 2,45668463993716E-02 
690	 2,51247442632599E-02 
691	 2,59274964402432E-02 
692	 2,67804394183647E-02 
693	 2,75523014172782E-02 
694	 2,89292027375683E-02 
695	 3,08589505726774E-02 
696	 3,28802024175256E-02 
697	 0,035000956133733 
698	 3,73027228728398E-02 
699	 0,040328164227743 
700	 4,38427089451497E-02 
701	 4,74830774748612E-02 
702	 5,08943736826104E-02 
703	 5,42632309950957E-02 
704	 5,86419379092339E-02 
705	 6,29743331517992E-02 
706	 6,66471817802841E-02 
707	 7,05921935302864E-02 
708	 7,47490568113703E-02 
709	 7,88004416996245E-02 
710	 8,25243828160841E-02 
711	 8,58744460930296E-02 
712	 8,91229648649776E-02 
713	 9,22229911829197E-02 
714	 9,51163238428316E-02 
715	 9,79467389606718E-02 
716	 0,100668938924569 
717	 0,103072458136685 
718	 0,105462145100652 
719	 0,10789218596301 
720	 0,109915471361083 
721	 0,111612495919457 
722	 0,113144372528121 
723	 0,114944401203406 
724	 0,11693227711654 
725	 0,11852294079781 
726	 0,119572724476855 
727	 0,120115610208571 
728	 0,121167139713022 
729	 0,122560015148498 
730	 0,123759911672506 
731	 0,124511220718964 
732	 0,124881193840998 
733	 0,125638629218646 
734	 0,126359361254317 
735	 0,126679864951879 
736	 0,127135342368544 
737	 0,127840511325481 
738	 0,128868616413866 
739	 0,129744522996735 
740	 0,130263173622474 
741	 0,130600084927266 
742	 0,130712399946662 
743	 0,130548799646524 
744	 0,130581655576906 
745	 0,130974401177135 
746	 0,131865233369726 
747	 0,132557723970165 
748	 0,132721709129216 
749	 0,133091870742786 
750	 0,133479866696042 
751	 0,133449680878567 
752	 0,13371902480643 
753	 0,134308052911558 
754	 0,134543751236253 
755	 0,134507547644214 
756	 0,134333108796112 
757	 0,134623259424579 
758	 0,13521565040727 
759	 0,135608817244154 
760	 0,135741306943357 
761	 0,135680034277043 
762	 0,135951764870602 
763	 0,136193759904673 
764	 0,136072316770458 
765	 0,136196822798962 
766	 0,136585725970692 
767	 0,137023332855838 
768	 0,137212830069623 
769	 0,137099672641898 
770	 0,137201159073139 
771	 0,137479758524172 
772	 0,137827486193525 
773	 0,137987836882007 
774	 0,138012057237662 
775	 0,138233053503169 
776	 0,138655270455829 
777	 0,139172868954142 
778	 0,13901771363289 
779	 0,138685749072142 
780	 0,139014266615522 
781	 0,13954424628738 
782	 0,139978382246225 
783	 0,139690978229785 
784	 0,139530609604795 
785	 0,140005754495212 
786	 0,140280660239482 
787	 0,140400310717203 
788	 0,140655924606115 
789	 0,140982099297189 
790	 0,141286597134855 
791	 0,141311401150108 
792	 0,141070504761427 
793	 0,140679872830095 
794	 0,14115472728251 
795	 0,142019732476219 
796	 0,141875078015783 
797	 0,14189981657464 
798	 0,142344743459942 
799	 0,142466433040948 
800	 0,142492614573582 
801	 0,142669132068062 
802	 0,142924031133452 
803	 0,143202807609149 
804	 0,143418792775369 
805	 0,143483942493837 
806	 0,14344823577891 
807	 0,143799326646136 
808	 0,144107767838571 
809	 0,14391633251222 
810	 0,144186186041382 
811	 0,144686724002443 
812	 0,144118217148897 
813	 0,144027375895951 
814	 0,144891310809684 
815	 0,145279756698136 
816	 0,145442791831237 
817	 0,145817325779567 
818	 0,145980099855192 
819	 0,145938810346966 
820	 0,145967076933476 
821	 0,146052620883362 
822	 0,146186156331883 
823	 0,1462399210886 
824	 0,146405593839491 
825	 0,146932270339947 
826	 0,147335803098357 
827	 0,14743824017728 
828	 0,14701898164676 
829	 0,14707014385816 
830	 0,147856720034549 
831	 0,147235099601503 
832	 0,14649902940707 
833	 0,14768294752195 
834	 0,147743343754074 
835	 0,146707787449144 
836	 0,147207986165987 
837	 0,147984834941309 
838	 0,148353073448664 
839	 0,148555949156389 
840	 0,148726089196228 
841	 0,149028179851047 
842	 0,149014471139582 
843	 0,148835425176925 
844	 0,149391353044167 
845	 0,149748970946541 
846	 0,14949967631186 
847	 0,149704192990481 
848	 0,149988594528025 
849	 0,149672307513702 
850	 0,149599921929671 
851	 0,149858681542685 
852	 0,150038782283351 
853	 0,149975659488268 
854	 0,149674461670016 
855	 0,149863134893132 
856	 0,150286387965428 
857	 0,150482414713622 
858	 0,150386952009051 
859	 0,150132513360842 
860	 0,150181532103209 
861	 0,150385142954086 
862	 0,150718844858775 
863	 0,151569768873884 
864	 0,152294485126623 
865	 0,15204859260654 
866	 0,15196331749837 
867	 0,152212405547742 
868	 0,152489284017053 
869	 0,152462653552104 
870	 0,152031585351566 
871	 0,151654567846619 
872	 0,151626070049593 
873	 0,15220038042438 
874	 0,15235332965334 
875	 0,152169669644844 
876	 0,152587754648934 
877	 0,153202119263996 
878	 0,153723886117914 
879	 0,153584866286658 
880	 0,153249766100246 
881	 0,153259260944556 
882	 0,153114196419997 
883	 0,152983903391962 
884	 0,15353919790832 
885	 0,154172278002569 
886	 0,15461992013936 
887	 0,154915168796645 
888	 0,154788279244811 
889	 0,154121327863313 
890	 0,15461835942925 
891	 0,155711606471964 
892	 0,155441792330707 
893	 0,155398521176652 
894	 0,155829152076175 
895	 0,155496183499243 
896	 0,15513296847486 
897	 0,15531910714746 
898	 0,155541973268365 
899	 0,15564902429894 
900	 0,155521799466715 
901	 0,155228279125705 
902	 0,155009557155186 
903	 0,155663273333744 
904	 0,15610949930662 
905	 0,15574447230175 
906	 0,155486898345199 
907	 0,155589991920995 
908	 0,15622330430787 
909	 0,157119622528773 
910	 0,157854263725551 
911	 0,157411496347627 
912	 0,156951930168099 
913	 0,15713429094317 
914	 0,15822493594963 
915	 0,1590551927801 
916	 0,158362134404037 
917	 0,157207780051983 
918	 0,156384786881367 
919	 0,157277079703253 
920	 0,157999861978659 
921	 0,157977355668987 
922	 0,158138879877474 
923	 0,157971790892125 
924	 0,157142044620243 
925	 0,156899187228267 
926	 0,157159496410095 
927	 0,157411743347864 
928	 0,157113860058559 
929	 0,156306878835121 
930	 0,155759474497377 
931	 0,155696865040662 
932	 0,15614794520214 
933	 0,156300325839136 
934	 0,156264137844812 
935	 0,156316595705719 
936	 0,156723471045207 
937	 0,157108138475413 
938	 0,156157577076667 
939	 0,155752204180657 
940	 0,156178524386093 
941	 0,154807995382009 
942	 0,153599690594546 
943	 0,154289177885701 
944	 0,15480196700327 
945	 0,154987131410378 
946	 0,155267384306226 
947	 0,154927118753036 
948	 0,153870716818098 
949	 0,152415994141051 
950	 0,151585209366847 
951	 0,151623062509339 
952	 0,149709905937764 
953	 0,147965150081598 
954	 0,149117340336646 
955	 0,149270450717473 
956	 0,148202712131585 
957	 0,147546825164876 
958	 0,147021454121632 
959	 0,146784254305589 
960	 0,147883054092417 
961	 0,147717935049547 
962	 0,145023681781414 
963	 0,14694790967943 
964	 0,150106650678229 
965	 0,147972843739971 
966	 0,146190023852532 
967	 0,146026715641588 
968	 0,146967472881259 
969	 0,147241326559881 
970	 0,146230026892394 
971	 0,145579748131861 
972	 0,144785310662906 
973	 0,143594318288947 
974	 0,145669656500161 
975	 0,148223668138815 
976	 0,145282577031002 
977	 0,144773730748091 
978	 0,147477696320807 
979	 0,14822076590724 
980	 0,148001318417601 
981	 0,147445838338985 
982	 0,147589656113091 
983	 0,147898040961357 
984	 0,147687572225467 
985	 0,146423099228015 
986	 0,145363296902443 
987	 0,147016796164523 
988	 0,149348750593165 
989	 0,151120456376529 
990	 0,150594846894803 
991	 0,149283193421613 
992	 0,148374666346408 
993	 0,149318365933564 
994	 0,150605743701534 
995	 0,15060802208046 
996	 0,150922968812606 
997	 0,15208824124155 
998	 0,154763482614669 
999	 0,153671831666614 
1000	 0,14968059739646 
1001	 0,151427941459869 
1002	 0,154298024052865 
1003	 0,156016467284003 
1004	 0,158278084130134 
1005	 0,158674341903723 
1006	 0,155415427755503 
1007	 0,155645123241982 
1008	 0,158017212757552 
1009	 0,157871120788997 
1010	 0,158010048550586 
1011	 0,158817682426454 
1012	 0,159476521675284 
1013	 0,158833000025161 
1014	 0,157211880028344 
1015	 0,159290078323701 
1016	 0,160423426280435 
1017	 0,157502830691004 
1018	 0,161361130565444 
1019	 0,166382587887278 
1020	 0,162359146997845 
1021	 0,160548303123531 
1022	 0,162155393690858 
1023	 0,16282207999121 
1024	 0,161996487099813 
1025	 0,160445353291032 
1026	 0,163282692737392 
1027	 0,165533787070324 
1028	 0,164508886504859 
1029	 0,166187402151645 
1030	 0,16747504378533 
1031	 0,164597665094648 
1032	 0,165813171333789 
1033	 0,170903058087311 
1034	 0,176135058369697 
1035	 0,176281594450197 
1036	 0,171794557060224 
1037	 0,170659943837241 
1038	 0,168195302809902 
1039	 0,163966453339043 
1040	 0,165905827127893 
1041	 0,168515166166742 
1042	 0,167818478157349 
1043	 0,17335854933808 
1044	 0,179709214294386 
1045	 0,178102372063414 
1046	 0,17209319112133 
1047	 0,16720026974737 
1048	 0,174893893053429 
1049	 0,175910964351047 
1050	 0,168311197873208 
1051	 0,168336115158473 
1052	 0,172834685079773 
1053	 0,178294534542979 
1054	 0,17476705426962 
1055	 0,174091777154782 
1056	 0,185107741711825 
1057	 0,186174483608806 
1058	 0,18173956556229 
1059	 0,181811849651177 
1060	 0,178817792839933 
1061	 0,173585066745929 
1062	 0,171093164531938 
1063	 0,17327753949591 
1064	 0,17885440607041 
1065	 0,182061444231032 
1066	 0,17546292023403 
1067	 0,161882516618363 
1068	 0,174291469901721 
1069	 0,187039949430137 
1070	 0,181871612291332 
1071	 0,177542524466404 
1072	 0,172136658167256 
1073	 0,162921625509042 
1074	 0,170754721593437 
1075	 0,187342625553372 
