Wavelength	SCO-GRA00590.asd
325	 0,310152090400557 
326	 0,191247942898432 
327	 7,59510310259062E-02 
328	 8,59076133825708E-02 
329	 4,76216019692337E-02 
330	 3,29449871756186E-02 
331	 6,79853875212753E-02 
332	 0,155674856867043 
333	 0,231075726245024 
334	 0,157712900292959 
335	 7,09916473947128E-02 
336	 4,57353073952969E-02 
337	 0,16682743643576 
338	 0,21519640080091 
339	 2,77724155750047E-02 
340	-2,77144704922153E-02 
341	 3,28923491755524E-02 
342	 6,39010008854881E-02 
343	 0,061811406549738 
344	 0,036444381199713 
345	 6,31111527410793E-02 
346	 9,01207279399527E-02 
347	 7,29653262640331E-02 
348	 8,45160914085311E-02 
349	 0,109053545165405 
350	 6,69923893639012E-02 
351	 4,28864905671501E-02 
352	 5,53802126048581E-02 
353	 4,08731945890012E-02 
354	 0,020577423310739 
355	 2,27295324258164E-02 
356	 1,56037784585644E-02 
357	 3,12698254235596E-03 
358	 1,08290077391506E-02 
359	 2,55365594103683E-02 
360	 3,57251249360659E-02 
361	 4,81131114667241E-04 
362	-2,53633414677531E-02 
363	 3,43435978676904E-02 
364	 4,62582816131724E-02 
365	 7,48942398563715E-03 
366	 3,20054801053266E-02 
367	 4,82816355482983E-02 
368	 1,85879362584781E-02 
369	 1,83030569796059E-02 
370	 3,80446898837903E-02 
371	 4,68680203814326E-02 
372	 3,59843866645159E-02 
373	 1,34506692857344E-02 
374	 2,75441174453452E-02 
375	 3,62419483271771E-02 
376	 1,14229625978176E-02 
377	 9,69372911613366E-03 
378	 2,78143690098895E-02 
379	 4,14585739583346E-02 
380	 2,90967553679604E-02 
381	-3,59966343679652E-03 
382	 6,09966481694415E-03 
383	 2,78595917244121E-02 
384	 2,98959525099294E-02 
385	 3,67800534308705E-02 
386	 4,44801114590423E-02 
387	 3,22423537609671E-02 
388	 3,22850018121936E-02 
389	 4,95248265880287E-02 
390	 3,47692807325352E-02 
391	 1,14477756254113E-02 
392	 1,25124520068102E-02 
393	 2,49156061526293E-02 
394	 3,79542602291021E-02 
395	 0,029652160254371 
396	 2,50067527607769E-02 
397	 3,42573878576194E-02 
398	 3,68982944062244E-02 
399	 3,21813210294216E-02 
400	 2,23871577059367E-02 
401	 1,55652782243345E-02 
402	 1,48037217929797E-02 
403	 2,26083611182354E-02 
404	 0,025561720680983 
405	 1,65712022197344E-02 
406	 2,12614822226477E-02 
407	 3,04529124744817E-02 
408	 1,70931853758303E-02 
409	 1,28513356132551E-02 
410	 0,021772870165023 
411	 1,65938164874514E-02 
412	 9,54876313740239E-03 
413	 0,012894719726745 
414	 1,72013448581678E-02 
415	 0,019185378403279 
416	 1,46662217564995E-02 
417	 1,33024126510703E-02 
418	 0,018423778916947 
419	 2,39297661226282E-02 
420	 2,57336461142245E-02 
421	 0,019822078979174 
422	 1,70809876746433E-02 
423	 1,80426902086949E-02 
424	 0,014998386318694 
425	 1,20692306406285E-02 
426	 1,21943220379657E-02 
427	 1,71180349651625E-02 
428	 2,29126767433196E-02 
429	 2,26558632298096E-02 
430	 1,99649551019525E-02 
431	 1,68475459784419E-02 
432	 1,66493644707947E-02 
433	 1,74048278204602E-02 
434	 1,73356699955184E-02 
435	 1,91304999886571E-02 
436	 2,10914609218596E-02 
437	 1,78350686580937E-02 
438	 1,49131104253765E-02 
439	 1,45098723884452E-02 
440	 1,47409238357843E-02 
441	 1,55438644986334E-02 
442	 1,70446387513192E-02 
443	 1,72321441654926E-02 
444	 1,60074076864374E-02 
445	 1,48278447441727E-02 
446	 1,35961875807937E-02 
447	 0,012805075322082 
448	 1,72225995497216E-02 
449	 2,19192711668618E-02 
450	 1,66026857494339E-02 
451	 1,34302496962377E-02 
452	 0,015329489961197 
453	 1,63584610979909E-02 
454	 0,017401660005079 
455	 1,92966700667757E-02 
456	 1,84003846371616E-02 
457	 1,60012349312774E-02 
458	 1,78330238351038E-02 
459	 1,69920811754927E-02 
460	 1,19210834966567E-02 
461	 1,21696394358309E-02 
462	 1,52250007653165E-02 
463	 1,65220859259313E-02 
464	 1,55423152268509E-02 
465	 1,33393573432629E-02 
466	 1,42217146081453E-02 
467	 1,59709236213047E-02 
468	 1,70614377371112E-02 
469	 1,83226369385301E-02 
470	 0,018512587457692 
471	 1,45913939681071E-02 
472	 1,42429282395986E-02 
473	 1,83157625207226E-02 
474	 1,81780469584283E-02 
475	 0,015574445707495 
476	 1,27969800058602E-02 
477	 1,12788595850573E-02 
478	 1,18702023646175E-02 
479	 1,61619155276485E-02 
480	 1,79785804227654E-02 
481	 1,52713158886412E-02 
482	 1,64407619333862E-02 
483	 1,89093871807278E-02 
484	 1,75652926174544E-02 
485	 1,65300764899772E-02 
486	 1,65347168494041E-02 
487	 1,61383706535269E-02 
488	 1,54130113649831E-02 
489	 1,45738129435578E-02 
490	 1,52272879775842E-02 
491	 1,66154848039103E-02 
492	 1,65113848507005E-02 
493	 1,60215580864866E-02 
494	 1,55780517557521E-02 
495	 1,52976669776016E-02 
496	 1,57240624485011E-02 
497	 1,73860786561311E-02 
498	 1,82007096924256E-02 
499	 1,74216523284042E-02 
500	 1,38845384416521E-02 
501	 1,28182436178978E-02 
502	 1,64425049939756E-02 
503	 1,65187180447096E-02 
504	 1,45962598107204E-02 
505	 1,53211155702984E-02 
506	 1,58270806386907E-02 
507	 1,56033761245103E-02 
508	 1,59870929803634E-02 
509	 0,016489795520129 
510	 1,66133787069423E-02 
511	 1,61884750985862E-02 
512	 1,55497275407382E-02 
513	 1,55553010359551E-02 
514	 1,58269425272441E-02 
515	 1,61538742148307E-02 
516	 1,62431169405038E-02 
517	 1,63215169919028E-02 
518	 1,67372378169552E-02 
519	 1,75651649509813E-02 
520	 1,83475930943899E-02 
521	 1,74496836279054E-02 
522	 1,64224427142444E-02 
523	 1,64354081277114E-02 
524	 1,71405018817824E-02 
525	 1,78784800169278E-02 
526	 1,73028528324205E-02 
527	 1,67967752177426E-02 
528	 1,68282814630272E-02 
529	 1,71173235193338E-02 
530	 1,72222426499348E-02 
531	 1,66836902487707E-02 
532	 1,64569842880482E-02 
533	 1,66056287827018E-02 
534	 1,64830395336444E-02 
535	 1,67893040627336E-02 
536	 0,017735905915812 
537	 1,74820381418655E-02 
538	 1,67828138438967E-02 
539	 1,75858065382076E-02 
540	 1,73719158354443E-02 
541	 1,58767848501378E-02 
542	 1,54387539746156E-02 
543	 1,61206469968769E-02 
544	 1,77472880703932E-02 
545	 1,82428079276942E-02 
546	 1,74191661488695E-02 
547	 1,58029578040039E-02 
548	 0,015696889683951 
549	 1,77649159783872E-02 
550	 1,76458877895875E-02 
551	 1,64501391746898E-02 
552	 1,66499466467676E-02 
553	 1,75172176337856E-02 
554	 1,84389267347176E-02 
555	 1,76717420297076E-02 
556	 1,69539604038338E-02 
557	 1,76860716059159E-02 
558	 1,82153890453086E-02 
559	 1,81262060875941E-02 
560	 1,70159980944546E-02 
561	 1,65198587757065E-02 
562	 1,71403009059355E-02 
563	 1,72467325949523E-02 
564	 1,70278294472643E-02 
565	 1,69383354618913E-02 
566	 1,67246665605953E-02 
567	 1,65207594013149E-02 
568	 1,69817811708208E-02 
569	 0,01737022295631 
570	 1,71964815401718E-02 
571	 1,70890107960628E-02 
572	 1,71560522795772E-02 
573	 1,74117469633931E-02 
574	 1,76502369079641E-02 
575	 1,78406853528179E-02 
576	 1,83684210586457E-02 
577	 0,018634816088474 
578	 1,79909702654886E-02 
579	 1,83440582774953E-02 
580	 1,95750394726824E-02 
581	 1,99488958503299E-02 
582	 1,98751974233079E-02 
583	 1,96144599414267E-02 
584	 1,93545293485229E-02 
585	 1,94200579139183E-02 
586	 0,020333470696432 
587	 2,10056059646013E-02 
588	 2,09418301996269E-02 
589	 0,019620265889408 
590	 1,86936539828626E-02 
591	 0,01964558976112 
592	 2,05161556659792E-02 
593	 2,10228905290022E-02 
594	 2,17364503868818E-02 
595	 2,16593064811274E-02 
596	 2,05795499263521E-02 
597	 2,03683053285321E-02 
598	 0,020691232498403 
599	 2,07235708725001E-02 
600	 2,09314200379785E-02 
601	 2,12734741784038E-02 
602	 2,12310943091678E-02 
603	 0,021053364900911 
604	 2,09169195395132E-02 
605	 2,03015061680229E-02 
606	 1,96095791270402E-02 
607	 0,02002404931203 
608	 2,04206805555598E-02 
609	 2,03709150784138E-02 
610	 2,00482799799261E-02 
611	 1,99542679683804E-02 
612	 0,020672196529763 
613	 2,09146669567009E-02 
614	 2,05211610508988E-02 
615	 2,01299164627263E-02 
616	 1,97317895555673E-02 
617	 1,93693283389743E-02 
618	 1,93471396416131E-02 
619	 0,019408888713824 
620	 1,89524701048213E-02 
621	 1,86001403967304E-02 
622	 1,86073650332238E-02 
623	 1,91453888668853E-02 
624	 1,95415098529764E-02 
625	 1,91382147546888E-02 
626	 1,91377754103881E-02 
627	 1,94938281991136E-02 
628	 1,92414353463409E-02 
629	 1,91274200637985E-02 
630	 1,94885117167831E-02 
631	 1,97587611056269E-02 
632	 2,00961843743357E-02 
633	 2,09289211768174E-02 
634	 2,07152696896124E-02 
635	 1,95719441990015E-02 
636	 1,99145564581885E-02 
637	 2,06131652840442E-02 
638	 2,07088147533219E-02 
639	 2,15449615572025E-02 
640	 2,27613467993862E-02 
641	 2,30664976351315E-02 
642	 2,24238027767341E-02 
643	 2,11611904227218E-02 
644	 2,13933817648915E-02 
645	 2,23216906540497E-02 
646	 2,26508700438222E-02 
647	 2,24209119629912E-02 
648	 2,18363185303616E-02 
649	 2,16488828308584E-02 
650	 2,16646268371391E-02 
651	 2,17220023897511E-02 
652	 2,15435689039573E-02 
653	 2,13472437594061E-02 
654	 2,17117789373397E-02 
655	 2,18184429468773E-02 
656	 2,14413312272719E-02 
657	 2,10180170010572E-02 
658	 0,020452557903374 
659	 0,019647345778322 
660	 1,92807415134022E-02 
661	 1,92646714472082E-02 
662	 1,88549131936999E-02 
663	 1,86338339059425E-02 
664	 0,018814437916444 
665	 1,87191649928824E-02 
666	 1,85788024100823E-02 
667	 1,89010172820658E-02 
668	 1,88014011537701E-02 
669	 1,81546766471904E-02 
670	 1,74563558003057E-02 
671	 1,71001499167625E-02 
672	 1,73664234389036E-02 
673	 1,77153556503158E-02 
674	 1,81578465416558E-02 
675	 0,019123111631824 
676	 1,95134398037186E-02 
677	 1,90444278765055E-02 
678	 1,86932539714348E-02 
679	 1,86340542965023E-02 
680	 1,89561282477641E-02 
681	 1,91009078382528E-02 
682	 0,019104607615662 
683	 1,95654438519128E-02 
684	 2,00700943019284E-02 
685	 2,03805367097866E-02 
686	 2,07254579577229E-02 
687	 2,10602435747254E-02 
688	 2,12429454778416E-02 
689	 2,15170590000068E-02 
690	 2,20578040959475E-02 
691	 2,31838862276836E-02 
692	 2,44780529139457E-02 
693	 2,55810576139158E-02 
694	 2,70786103125098E-02 
695	 0,028956485785068 
696	 3,08061739581881E-02 
697	 3,32540039094552E-02 
698	 3,64229634057795E-02 
699	 3,94150009892444E-02 
700	 4,24113068884235E-02 
701	 4,57466692958191E-02 
702	 4,95859854985143E-02 
703	 5,37305444666132E-02 
704	 5,74434058357439E-02 
705	 6,10077189470972E-02 
706	 6,45972416724135E-02 
707	 6,79845709551356E-02 
708	 7,14283999823342E-02 
709	 7,55215407125864E-02 
710	 7,90062779221113E-02 
711	 8,17019640748048E-02 
712	 8,48396222585438E-02 
713	 8,78726064898521E-02 
714	 9,02778074394757E-02 
715	 9,28844553277928E-02 
716	 9,56725785750818E-02 
717	 9,82224488210813E-02 
718	 0,100426353953616 
719	 0,102251748436665 
720	 0,103932615747974 
721	 0,105524291390924 
722	 0,10705924059414 
723	 0,108713076016969 
724	 0,110405994976203 
725	 0,111741575039164 
726	 0,112910752939476 
727	 0,11401404964781 
728	 0,114852339128005 
729	 0,115520846687985 
730	 0,116167942219606 
731	 0,117425588890469 
732	 0,119077364919617 
733	 0,119287103396671 
734	 0,119378626088961 
735	 0,120504482110592 
736	 0,121395813533056 
737	 0,121936457603001 
738	 0,122420364920621 
739	 0,122832843109274 
740	 0,12321520912607 
741	 0,123722123010203 
742	 0,124199393254787 
743	 0,124461755445238 
744	 0,124866616906482 
745	 0,125433047994716 
746	 0,125972254318929 
747	 0,126430225805033 
748	 0,126749827759599 
749	 0,126817887571308 
750	 0,12682737681743 
751	 0,127073198710737 
752	 0,127538170317004 
753	 0,128134591184124 
754	 0,128609013150736 
755	 0,128790325360911 
756	 0,128649935123133 
757	 0,129161370727064 
758	 0,129957061239945 
759	 0,129989892996201 
760	 0,129867600255511 
761	 0,12985321434528 
762	 0,130174660275283 
763	 0,130672712791528 
764	 0,13115681284148 
765	 0,131326587187238 
766	 0,131281854692398 
767	 0,13140087761792 
768	 0,131734731067683 
769	 0,132292970102039 
770	 0,132975017135312 
771	 0,133350793402189 
772	 0,132966254498273 
773	 0,132941070622373 
774	 0,133381023368369 
775	 0,133743543817806 
776	 0,134008236713012 
777	 0,134182735375195 
778	 0,13454233357789 
779	 0,134928836396548 
780	 0,135067374355014 
781	 0,135289353704716 
782	 0,135583062227358 
783	 0,135493056929736 
784	 0,135803952722971 
785	 0,136872916012432 
786	 0,137101888444235 
787	 0,136810445903677 
788	 0,136958233967566 
789	 0,137435778123136 
790	 0,138044178153846 
791	 0,137999592427231 
792	 0,137939484997798 
793	 0,138351172602394 
794	 0,138508676300253 
795	 0,138574859011915 
796	 0,139192560519623 
797	 0,139450338808879 
798	 0,139266395958222 
799	 0,139825156246544 
800	 0,140439342680826 
801	 0,140452205875042 
802	 0,140694815683948 
803	 0,141075949112721 
804	 0,140882490198351 
805	 0,141180860298083 
806	 0,142101112593361 
807	 0,14204322685605 
808	 0,141826753233076 
809	 0,142402824305135 
810	 0,142601682196859 
811	 0,142452302464751 
812	 0,142707789635103 
813	 0,142944785006986 
814	 0,14308618730998 
815	 0,143740495553598 
816	 0,144364964686017 
817	 0,144295255161415 
818	 0,144711486096274 
819	 0,145490777021492 
820	 0,145446920033658 
821	 0,145351782999124 
822	 0,145584722837786 
823	 0,146028417151371 
824	 0,146564922497605 
825	 0,147048403281534 
826	 0,146973836203083 
827	 0,146611842586184 
828	 0,14724420304865 
829	 0,147671790936934 
830	 0,147434493831281 
831	 0,147958266382695 
832	 0,14861518781463 
833	 0,148369104757435 
834	 0,148198265582162 
835	 0,148315302261775 
836	 0,148555417799046 
837	 0,148874974885728 
838	 0,149207588336801 
839	 0,149379053264846 
840	 0,14943516926538 
841	 0,149470542744694 
842	 0,149775269063465 
843	 0,150243336848135 
844	 0,150273504008305 
845	 0,150185087095918 
846	 0,150255271026292 
847	 0,151118250299643 
848	 0,151955586204623 
849	 0,151555181334793 
850	 0,151381612615035 
851	 0,1516304914169 
852	 0,15163190402479 
853	 0,151551081995306 
854	 0,151602876134219 
855	 0,152673415339663 
856	 0,153753605179121 
857	 0,153380716375264 
858	 0,153142196945578 
859	 0,153329545118582 
860	 0,153512851552375 
861	 0,153721782632861 
862	 0,15397446099563 
863	 0,154447708706003 
864	 0,154656116295183 
865	 0,15398988028722 
866	 0,154195584389682 
867	 0,155149399814077 
868	 0,155026598946415 
869	 0,155506575514917 
870	 0,156958347248463 
871	 0,156584625186995 
872	 0,155643803175924 
873	 0,155917547361276 
874	 0,155949663439037 
875	 0,155809032672995 
876	 0,156536308491752 
877	 0,157498730754601 
878	 0,158186225638494 
879	 0,1574136405841 
880	 0,156761669478007 
881	 0,157922990870048 
882	 0,158716770882825 
883	 0,158771913558846 
884	 0,158212188637168 
885	 0,15830908776309 
886	 0,159271353167616 
887	 0,159321584901618 
888	 0,159218644140022 
889	 0,159747429042099 
890	 0,160441432419172 
891	 0,160897469224699 
892	 0,160391900516367 
893	 0,160239164227054 
894	 0,160692878819472 
895	 0,160710815002072 
896	 0,160678383412657 
897	 0,160916101432335 
898	 0,161267640303574 
899	 0,161541209003601 
900	 0,16141056314689 
901	 0,161988168366696 
902	 0,163065942130556 
903	 0,162593137933875 
904	 0,162219954053365 
905	 0,162860647463436 
906	 0,163008807192168 
907	 0,163004413432206 
908	 0,163571769039983 
909	 0,163262273176557 
910	 0,162476132164431 
911	 0,163632543948759 
912	 0,164529845007328 
913	 0,164319729168251 
914	 0,164728330903657 
915	 0,165196498865237 
916	 0,164986574454931 
917	 0,164969249106388 
918	 0,164890945445063 
919	 0,163493972666884 
920	 0,1631143043143 
921	 0,16429831616488 
922	 0,165392831099745 
923	 0,165752665667012 
924	 0,165078214882647 
925	 0,165379889657485 
926	 0,166237280028483 
927	 0,166307029168506 
928	 0,165932107194479 
929	 0,165466715921129 
930	 0,166015961803858 
931	 0,165856874843246 
932	 0,164376940812256 
933	 0,164682647003165 
934	 0,166118779288276 
935	 0,167346759386766 
936	 0,166990754367779 
937	 0,16545289591141 
938	 0,16476413279512 
939	 0,164802764061042 
940	 0,165393288322316 
941	 0,165510497456484 
942	 0,16553102171931 
943	 0,165807988880817 
944	 0,165941963694562 
945	 0,165612680005763 
946	 0,164336074408029 
947	 0,163700826134161 
948	 0,163818704632133 
949	 0,163348441770856 
950	 0,162061241211668 
951	 0,160140823302044 
952	 0,159438532770573 
953	 0,160155072159654 
954	 0,162058314145103 
955	 0,161005048638017 
956	 0,157940825867693 
957	 0,157478570066455 
958	 0,158445157811178 
959	 0,160045237957703 
960	 0,160292207402645 
961	 0,159857985653835 
962	 0,159346150975223 
963	 0,158531244299759 
964	 0,158432429708757 
965	 0,160518125302914 
966	 0,161826718549379 
967	 0,161675881185619 
968	 0,160460242964482 
969	 0,15988979645668 
970	 0,160341516490693 
971	 0,158768027026262 
972	 0,158604151816334 
973	 0,162436550350089 
974	 0,161583396298843 
975	 0,158611706885827 
976	 0,160726604412376 
977	 0,162043372027787 
978	 0,161722294096713 
979	 0,162615623819891 
980	 0,162894963489884 
981	 0,161902790721593 
982	 0,161193795101055 
983	 0,161263535657308 
984	 0,162270747482399 
985	 0,161431510800283 
986	 0,160105248396549 
987	 0,161918697130751 
988	 0,163156346082181 
989	 0,1631376395855 
990	 0,16353324153565 
991	 0,164056490480264 
992	 0,164553529975478 
993	 0,164925400455669 
994	 0,165140326622176 
995	 0,165241209751518 
996	 0,166111989188479 
997	 0,167083903620984 
998	 0,1665988923361 
999	 0,165066517713327 
1000	 0,16336130201284 
1001	 0,163712675983585 
1002	 0,165394379245348 
1003	 0,167519506275634 
1004	 0,167452711425083 
1005	 0,167402817124044 
1006	 0,169619417297796 
1007	 0,172464314421188 
1008	 0,174252919645321 
1009	 0,172616910563164 
1010	 0,172648341537788 
1011	 0,17387197779536 
1012	 0,16932100504916 
1013	 0,168418236651366 
1014	 0,173765179808963 
1015	 0,175431149442077 
1016	 0,175939190736819 
1017	 0,177359877999086 
1018	 0,174802417978376 
1019	 0,170770678167241 
1020	 0,169884531397318 
1021	 0,170490765443701 
1022	 0,172301522226299 
1023	 0,175810552974976 
1024	 0,176769403163906 
1025	 0,174808578281009 
1026	 0,175857930574267 
1027	 0,177052450420806 
1028	 0,176579295467737 
1029	 0,176540025895937 
1030	 0,175360250989396 
1031	 0,171465168898075 
1032	 0,171826278528386 
1033	 0,175310845816462 
1034	 0,176812089375835 
1035	 0,178707109250944 
1036	 0,180834819027467 
1037	 0,181283014529756 
1038	 0,178512681472616 
1039	 0,174229803427029 
1040	 0,180640735846091 
1041	 0,184919764136582 
1042	 0,177958104309597 
1043	 0,181257913612132 
1044	 0,189781384187665 
1045	 0,192699809829698 
1046	 0,194041101020324 
1047	 0,193663881957253 
1048	 0,189432468361771 
1049	 0,189237011401265 
1050	 0,193471880170978 
1051	 0,193405087296304 
1052	 0,19085744626202 
1053	 0,187975266847874 
1054	 0,190709344652604 
1055	 0,191476288031872 
1056	 0,185429475935518 
1057	 0,193658792195472 
1058	 0,201154372389297 
1059	 0,184598739690878 
1060	 0,175985096808367 
1061	 0,178553133977571 
1062	 0,183533081025699 
1063	 0,187749319762619 
1064	 0,190113600500569 
1065	 0,194049584579809 
1066	 0,186190961136762 
1067	 0,16658138121002 
1068	 0,168506994549542 
1069	 0,179819882789637 
1070	 0,189228170759347 
1071	 0,195868885981133 
1072	 0,200696636123589 
1073	 0,204898120416997 
1074	 0,196273088332782 
1075	 0,183624275703832 
