Wavelength	SCO-GRA00673.asd
325	 3,08404286388246E-02 
326	 0,230969578249534 
327	 0,248729594819445 
328	-0,12858132661109 
329	 6,35054028763686E-03 
330	 0,151412567893784 
331	 7,65909751338785E-02 
332	 6,10420804215483E-02 
333	 8,95524563433142E-02 
334	 7,77801247141585E-02 
335	 3,65696777338381E-02 
336	-5,53235409190612E-03 
337	 6,44093559408298E-02 
338	 0,122535300904206 
339	 0,064252388490106 
340	 3,99231275399401E-02 
341	 5,06618902199217E-02 
342	 4,94337265106865E-02 
343	 6,08338702841225E-02 
344	 7,77910196434183E-02 
345	 3,12337307301049E-02 
346	-2,21006417984972E-02 
347	-3,73583448545676E-02 
348	-4,30639232309907E-03 
349	 4,54570665197842E-02 
350	 2,75245631150658E-02 
351	 0,018742062871474 
352	 3,97181954560552E-02 
353	 4,82575119708031E-02 
354	 4,26600854643593E-02 
355	 2,48494265544862E-02 
356	 1,52725661799628E-02 
357	 0,022445358314843 
358	 5,99382892871783E-02 
359	 6,02547349719403E-02 
360	 6,17878825619118E-04 
361	-1,53236162797912E-02 
362	 1,48024368469575E-03 
363	 0,01780063312921 
364	 3,87542251476035E-02 
365	 5,34631675656608E-02 
366	 2,87181363530783E-02 
367	 7,97292408923451E-03 
368	 1,72699272438978E-02 
369	 3,44979366723345E-02 
370	 4,43604884026567E-02 
371	 2,76052195243828E-02 
372	 1,37151260283531E-02 
373	 1,39012054375752E-02 
374	 0,036081108047753 
375	 3,66838025127119E-02 
376	-9,89543803092781E-03 
377	-7,15883014197156E-03 
378	 3,12700911027318E-02 
379	 4,23752800988982E-02 
380	 3,63782594453914E-02 
381	 2,13623705920797E-02 
382	 2,75109072117468E-02 
383	 3,40196531836094E-02 
384	 0,021108820922484 
385	 3,17735529019745E-02 
386	 5,12495050293782E-02 
387	 2,38470984917142E-02 
388	 1,73809428274298E-02 
389	 4,68494255115131E-02 
390	 3,26220772609385E-02 
391	 5,55840511554622E-03 
392	 1,00253099445978E-02 
393	 2,12544798424744E-02 
394	 3,11222987292407E-02 
395	 3,30550929694356E-02 
396	 3,60645568998012E-02 
397	 4,24186158314038E-02 
398	 3,14103462429584E-02 
399	 2,09685212519755E-02 
400	 0,041039777286368 
401	 0,042707440145813 
402	 2,65439564241621E-02 
403	 4,54720145204885E-02 
404	 0,052675770272778 
405	 2,10761322765295E-02 
406	 0,018044834399529 
407	 3,34328560647425E-02 
408	 2,56897757987474E-02 
409	 2,00569540884049E-02 
410	 2,19480446569172E-02 
411	 2,21013433519731E-02 
412	 2,22229776472136E-02 
413	 2,40730340841099E-02 
414	 2,31111758243213E-02 
415	 2,03305923716927E-02 
416	 1,94640434292473E-02 
417	 0,021518245690779 
418	 2,62393436109382E-02 
419	 2,92171154388038E-02 
420	 3,07233472571416E-02 
421	 3,17289746520098E-02 
422	 3,37606860545956E-02 
423	 3,57139418661119E-02 
424	 3,29224879388149E-02 
425	 2,89648123996099E-02 
426	 2,68632201663464E-02 
427	 3,12878160585438E-02 
428	 3,69826918021817E-02 
429	 3,37876662596125E-02 
430	 2,95647747124073E-02 
431	 2,72450573456136E-02 
432	 2,79393757021531E-02 
433	 3,06032333151193E-02 
434	 3,40003671473026E-02 
435	 3,51459776464469E-02 
436	 0,034050804056585 
437	 3,22035436072436E-02 
438	 3,07669070865954E-02 
439	 3,03016754382524E-02 
440	 3,01185303570833E-02 
441	 3,02044614634438E-02 
442	 3,06247704874103E-02 
443	 3,02239920996607E-02 
444	 2,98095283570085E-02 
445	 3,34322701547035E-02 
446	 3,51714464749424E-02 
447	 3,19263868074092E-02 
448	 3,11120747603041E-02 
449	 3,22526524766895E-02 
450	 3,25646270982899E-02 
451	 3,21168644831911E-02 
452	 0,031331558832519 
453	 3,22538034002239E-02 
454	 3,42539226712152E-02 
455	 3,64184523585698E-02 
456	 3,44786373098521E-02 
457	 3,07618147541715E-02 
458	 3,39445222086018E-02 
459	 3,58047424769311E-02 
460	 3,32837711372331E-02 
461	 3,03827056497966E-02 
462	 2,92862064380708E-02 
463	 3,22522541067973E-02 
464	 0,033453832894084 
465	 3,21715087337417E-02 
466	 3,15135947287042E-02 
467	 3,16869926571417E-02 
468	 3,27812087518483E-02 
469	 3,39298338720522E-02 
470	 3,51633054645924E-02 
471	 3,70558373513783E-02 
472	 3,76389278283429E-02 
473	 0,036562764361079 
474	 3,56725024961025E-02 
475	 3,44758677911788E-02 
476	 3,24539982765846E-02 
477	 3,12240135262029E-02 
478	 3,16930794034718E-02 
479	 3,57229165456149E-02 
480	 3,76397515412391E-02 
481	 0,035568024524016 
482	 3,70819764828142E-02 
483	 4,00124826811321E-02 
484	 4,00390397646503E-02 
485	 3,90469129889663E-02 
486	 3,76706448603228E-02 
487	 3,62206798218197E-02 
488	 3,59262401363285E-02 
489	 3,73640036711537E-02 
490	 0,036221059276569 
491	 3,40554428324804E-02 
492	 3,62116588495213E-02 
493	 3,76555039649383E-02 
494	 3,71631771556585E-02 
495	 3,83295608186695E-02 
496	 3,94071757349837E-02 
497	 3,82308552792357E-02 
498	 3,88418275080629E-02 
499	 4,04083777600918E-02 
500	 0,037115107189749 
501	 3,54973897080306E-02 
502	 3,86097599076688E-02 
503	 3,88289469615375E-02 
504	 3,75883724181468E-02 
505	 0,039226120670401 
506	 3,99841265025227E-02 
507	 3,92603579833828E-02 
508	 0,039367098537436 
509	 3,97642688505689E-02 
510	 3,99095954947694E-02 
511	 4,04877051254658E-02 
512	 4,12370026079818E-02 
513	 4,12158753872036E-02 
514	 4,10832808487961E-02 
515	 0,041269098422984 
516	 4,26283580100569E-02 
517	 4,37490821022068E-02 
518	 4,25780453462658E-02 
519	 4,28012411484166E-02 
520	 4,45491598598577E-02 
521	 0,04469750254599 
522	 4,40951799874615E-02 
523	 4,35137458089683E-02 
524	 4,39465689493865E-02 
525	 4,49218471768462E-02 
526	 4,50288942186123E-02 
527	 4,50202240749683E-02 
528	 0,045026203566734 
529	 0,044431359381162 
530	 4,38299184065982E-02 
531	 4,39222880382275E-02 
532	 4,44028839273458E-02 
533	 4,50166932992259E-02 
534	 4,52309080475308E-02 
535	 4,54884538664526E-02 
536	 4,60151879717813E-02 
537	 4,64553009028755E-02 
538	 4,66642500286873E-02 
539	 4,64382954830907E-02 
540	 4,64287544330702E-02 
541	 0,046746601766572 
542	 4,67685714578422E-02 
543	 4,68449104268229E-02 
544	 0,047337924811084 
545	 4,81355651927208E-02 
546	 4,88229196466501E-02 
547	 4,83402025328867E-02 
548	 4,78452149721596E-02 
549	 4,79556109592897E-02 
550	 4,85646457179769E-02 
551	 0,049239763222273 
552	 4,93545872299174E-02 
553	 4,91967121121145E-02 
554	 4,90022102586019E-02 
555	 4,93391925883092E-02 
556	 4,97291790214841E-02 
557	 4,97956537797286E-02 
558	 5,02595373533125E-02 
559	 5,08018615901755E-02 
560	 5,02369564914146E-02 
561	 5,00378825793044E-02 
562	 5,06657143066385E-02 
563	 5,09195019548072E-02 
564	 5,10510457180241E-02 
565	 5,15336752376372E-02 
566	 5,18469753771795E-02 
567	 5,19908205670198E-02 
568	 5,24997511073295E-02 
569	 5,27863684701695E-02 
570	 5,24988008207488E-02 
571	 5,24859790281149E-02 
572	 5,26809503467533E-02 
573	 5,26363444059323E-02 
574	 5,25458474099935E-02 
575	 0,052514190986947 
576	 5,26215895122936E-02 
577	 5,32055416235855E-02 
578	 5,45853895804029E-02 
579	 5,50348130957341E-02 
580	 5,45943643313763E-02 
581	 5,47391870855223E-02 
582	 5,49902731594154E-02 
583	 5,51464969724947E-02 
584	 5,56427506251854E-02 
585	 5,64151984253056E-02 
586	 5,73211007102174E-02 
587	 5,76489323058205E-02 
588	 5,73102620643234E-02 
589	 5,70240323118772E-02 
590	 5,68924916155267E-02 
591	 5,69934919329023E-02 
592	 5,75759915768553E-02 
593	 5,83594723289981E-02 
594	 5,85458008898806E-02 
595	 5,84434692515672E-02 
596	 5,82917773702146E-02 
597	 5,87926726332994E-02 
598	 5,92044659161029E-02 
599	 5,82875461466351E-02 
600	 5,82252291705597E-02 
601	 5,91715161787801E-02 
602	 5,92018719841314E-02 
603	 0,058961257492708 
604	 5,89606727276312E-02 
605	 0,058623087843846 
606	 5,81920926492904E-02 
607	 5,85176384563816E-02 
608	 5,86036871477586E-02 
609	 5,81371779986635E-02 
610	 5,76070833022985E-02 
611	 5,74700337044845E-02 
612	 5,82100997991671E-02 
613	 5,87029663435717E-02 
614	 5,88331048080898E-02 
615	 5,94389660620372E-02 
616	 5,93585883010424E-02 
617	 5,80720598992037E-02 
618	 5,79353488653811E-02 
619	 5,85680711922338E-02 
620	 5,85153413039572E-02 
621	 5,85014623935122E-02 
622	 5,86381918359144E-02 
623	 0,058490575901333 
624	 5,82068746665511E-02 
625	 5,79758936528575E-02 
626	 5,81027723752301E-02 
627	 5,84190942216067E-02 
628	 5,82255386304506E-02 
629	 5,79878863098438E-02 
630	 5,80511639530565E-02 
631	 5,90098309077552E-02 
632	 6,02426690697045E-02 
633	 0,060713708190762 
634	 6,01619962930429E-02 
635	 0,059042653337919 
636	 5,95061614104952E-02 
637	 6,03790815589765E-02 
638	 6,06346233668689E-02 
639	 6,11276523522831E-02 
640	 6,18925252670457E-02 
641	 6,29001718749433E-02 
642	 6,27542585794022E-02 
643	 6,12777456392064E-02 
644	 6,11616612197375E-02 
645	 6,19319988344873E-02 
646	 6,26293975473968E-02 
647	 6,29099971827757E-02 
648	 6,27581768769294E-02 
649	 0,062634494101728 
650	 6,25239346331855E-02 
651	 0,062399768038537 
652	 6,20289784414205E-02 
653	 6,15902640265904E-02 
654	 6,15198985970607E-02 
655	 6,14046502861053E-02 
656	 6,10726851168447E-02 
657	 6,04651277342102E-02 
658	 5,97154588243864E-02 
659	 5,89757889364874E-02 
660	 5,83507429914004E-02 
661	 5,78933352974838E-02 
662	 0,05768409393428 
663	 5,73500175452293E-02 
664	 5,68090904784187E-02 
665	 0,057018580162673 
666	 0,057354565260851 
667	 5,66886963099885E-02 
668	 5,60768769701164E-02 
669	 0,055840591628219 
670	 5,60107216566985E-02 
671	 5,59706827226594E-02 
672	 5,53184881109377E-02 
673	 5,53949221064508E-02 
674	 5,61205230602345E-02 
675	 5,68342930350345E-02 
676	 5,70959387582603E-02 
677	 5,68317438573441E-02 
678	 5,69081628018201E-02 
679	 5,71421497723406E-02 
680	 5,72266738019418E-02 
681	 5,74562489170524E-02 
682	 5,78733254252048E-02 
683	 5,83778844211139E-02 
684	 5,89908893810072E-02 
685	 5,97148868452886E-02 
686	 6,05710011917129E-02 
687	 6,13104260893537E-02 
688	 6,14846818403221E-02 
689	 0,06179241167449 
690	 6,25478316405801E-02 
691	 6,39338014352999E-02 
692	 6,56473818225727E-02 
693	 0,067369944108835 
694	 6,86957248744545E-02 
695	 6,98813957601672E-02 
696	 7,17329904233578E-02 
697	 7,39923620488209E-02 
698	 7,65733008213493E-02 
699	 7,96868864620476E-02 
700	 8,24881302275939E-02 
701	 8,39057272859627E-02 
702	 8,58716153202185E-02 
703	 8,86009727148861E-02 
704	 9,10510416367843E-02 
705	 9,33611970370556E-02 
706	 9,55882352941176E-02 
707	 9,74980899914522E-02 
708	 9,92959754573111E-02 
709	 0,101433196774001 
710	 0,103360365735967 
711	 0,104920381530889 
712	 0,10627066035513 
713	 0,107573082851527 
714	 0,108956320297064 
715	 0,110231663986522 
716	 0,111292059952889 
717	 0,111905546258672 
718	 0,112715277276145 
719	 0,113895624649734 
720	 0,114624034746895 
721	 0,115212981136728 
722	 0,116154515552907 
723	 0,116966217369634 
724	 0,117550907350069 
725	 0,117989245216439 
726	 0,118412180276982 
727	 0,118899442319657 
728	 0,119355705035759 
729	 0,119716421851884 
730	 0,119852720302112 
731	 0,12039027595465 
732	 0,121317460299344 
733	 0,12168014185301 
734	 0,12196190246683 
735	 0,122570733396165 
736	 0,122724166786258 
737	 0,122631023300731 
738	 0,123169096688166 
739	 0,123586618562032 
740	 0,123666005957659 
741	 0,123849160073607 
742	 0,124159205194676 
743	 0,124574568663824 
744	 0,124810146737181 
745	 0,124875518043887 
746	 0,124983556185644 
747	 0,125325738076122 
748	 0,125901684684323 
749	 0,125851154113878 
750	 0,125679436730619 
751	 0,126324780023823 
752	 0,126674241703804 
753	 0,126616862946204 
754	 0,126982040205394 
755	 0,127307017441783 
756	 0,127281831021033 
757	 0,127354887997528 
758	 0,127606221598398 
759	 0,128096536132945 
760	 0,128217156667844 
761	 0,127922049723098 
762	 0,128033180143809 
763	 0,128362099826109 
764	 0,12867850401307 
765	 0,12891531267791 
766	 0,128992690900832 
767	 0,128697958912328 
768	 0,128728191742611 
769	 0,129289200367588 
770	 0,129725947053233 
771	 0,129994458485987 
772	 0,13011668414768 
773	 0,130072693321783 
774	 0,129991138146722 
775	 0,130238892087912 
776	 0,130475956924792 
777	 0,130542104792308 
778	 0,130642259387251 
779	 0,130819227578727 
780	 0,131095550222902 
781	 0,131584632389922 
782	 0,132124077761662 
783	 0,132073991738922 
784	 0,131962641910021 
785	 0,132144046695631 
786	 0,132426493541887 
787	 0,132671006821949 
788	 0,13266893496167 
789	 0,132777382036394 
790	 0,132994379224905 
791	 0,132811460542072 
792	 0,132678381907393 
793	 0,132948404499242 
794	 0,133256162111209 
795	 0,133521153224899 
796	 0,133720496079714 
797	 0,133849489937714 
798	 0,133945756298493 
799	 0,134221678175365 
800	 0,134362807931581 
801	 0,134107995342939 
802	 0,13416014117595 
803	 0,134448838955455 
804	 0,134408705706804 
805	 0,13457284510962 
806	 0,13496619185299 
807	 0,134642623492369 
808	 0,134295029302384 
809	 0,134695239718506 
810	 0,134890439310694 
811	 0,134844473418085 
812	 0,135053379752711 
813	 0,135106901715913 
814	 0,134963090038197 
815	 0,135422609094888 
816	 0,135975123145756 
817	 0,135960194820599 
818	 0,13630483819456 
819	 0,136821266584637 
820	 0,136279997370079 
821	 0,135985503371183 
822	 0,136428933860888 
823	 0,136348410243973 
824	 0,136240904615735 
825	 0,136877743605036 
826	 0,137148771020576 
827	 0,137032268615743 
828	 0,137391786619055 
829	 0,137523897635251 
830	 0,13719763537608 
831	 0,137449287508931 
832	 0,137814787362907 
833	 0,137524959399186 
834	 0,137473713677254 
835	 0,137711730534653 
836	 0,13761590763907 
837	 0,137714051798589 
838	 0,138183979889989 
839	 0,138201847088052 
840	 0,137933782386338 
841	 0,137746064775923 
842	 0,137787650054809 
843	 0,138067781170333 
844	 0,13852596840154 
845	 0,138484562551129 
846	 0,137759928198855 
847	 0,137928241996392 
848	 0,138490618936946 
849	 0,138496913822003 
850	 0,138268719057766 
851	 0,137890514882495 
852	 0,13731486160681 
853	 0,137219250962943 
854	 0,137903747976181 
855	 0,138687289029893 
856	 0,139092931363308 
857	 0,138625126336474 
858	 0,138240867001465 
859	 0,13815922116078 
860	 0,138157640145964 
861	 0,13833140989155 
862	 0,138628031459371 
863	 0,138479049969316 
864	 0,138072664678049 
865	 0,137747448273111 
866	 0,138501871341626 
867	 0,139729018397053 
868	 0,138791124440666 
869	 0,138262335940856 
870	 0,139074274282233 
871	 0,138736733878252 
872	 0,138314846123398 
873	 0,139277689660628 
874	 0,139355746071659 
875	 0,138623403280402 
876	 0,138797712289082 
877	 0,13881345076585 
878	 0,138419813207061 
879	 0,138648380038861 
880	 0,13936549916317 
881	 0,140276606568992 
882	 0,140346286989787 
883	 0,139783992788779 
884	 0,139654978262086 
885	 0,140037669084815 
886	 0,140763630530193 
887	 0,140632166071303 
888	 0,140299932720814 
889	 0,140438956238298 
890	 0,140689943585761 
891	 0,140769246532488 
892	 0,140133422356908 
893	 0,140028271146147 
894	 0,140627042805548 
895	 0,140684848045417 
896	 0,140618042468825 
897	 0,140760424639865 
898	 0,14078973075259 
899	 0,140658132113524 
900	 0,140334629267458 
901	 0,140537984650087 
902	 0,141180516000747 
903	 0,141140754472485 
904	 0,140811559028129 
905	 0,140530430575951 
906	 0,14078830137004 
907	 0,14126502773073 
908	 0,141419773533056 
909	 0,140671804531677 
910	 0,139666306380182 
911	 0,140866914888733 
912	 0,142122641758391 
913	 0,142365923484853 
914	 0,14196989468761 
915	 0,141545462982309 
916	 0,141718136773869 
917	 0,14194175207321 
918	 0,141861338673646 
919	 0,140711711581482 
920	 0,140596731362365 
921	 0,141889042147835 
922	 0,142626513246857 
923	 0,142168036925797 
924	 0,140407607430112 
925	 0,140964185329308 
926	 0,142875401489347 
927	 0,143388790693705 
928	 0,142726101719283 
929	 0,141386678962926 
930	 0,141173021673769 
931	 0,140975520392243 
932	 0,140341117195782 
933	 0,140869891019259 
934	 0,141748075871104 
935	 0,141768140716964 
936	 0,142512139652767 
937	 0,143572345985624 
938	 0,142871098439815 
939	 0,142019892788555 
940	 0,141724523405401 
941	 0,14213915319995 
942	 0,14247758956641 
943	 0,142112346520317 
944	 0,14226306122679 
945	 0,142752273423521 
946	 0,142942013330648 
947	 0,142017151777635 
948	 0,140442253096042 
949	 0,14097256601432 
950	 0,140797990399122 
951	 0,138797530941872 
952	 0,138781507754677 
953	 0,140068529401131 
954	 0,141255052884956 
955	 0,140584852601166 
956	 0,13871675901891 
957	 0,138199234329075 
958	 0,139130684431511 
959	 0,1411361876625 
960	 0,142227926170161 
961	 0,142166088764755 
962	 0,141022345287501 
963	 0,140462884229038 
964	 0,140142895219192 
965	 0,139123944501538 
966	 0,139811750066195 
967	 0,141602286788288 
968	 0,140792061525473 
969	 0,140256839313891 
970	 0,140851456555014 
971	 0,139987011261758 
972	 0,139870375940134 
973	 0,142184045761796 
974	 0,141105220832797 
975	 0,139015801404501 
976	 0,14190715017527 
977	 0,143076648667726 
978	 0,141768814807487 
979	 0,141972809505926 
980	 0,142605031422104 
981	 0,142943333368691 
982	 0,141703846509935 
983	 0,140964358265359 
984	 0,142668012525907 
985	 0,143064828371326 
986	 0,142030812428301 
987	 0,1407165807305 
988	 0,139490994553492 
989	 0,138816443336965 
990	 0,139522912133177 
991	 0,140540207642744 
992	 0,141081358839737 
993	 0,140304815133867 
994	 0,139935752209676 
995	 0,141592385302195 
996	 0,141778123994628 
997	 0,141441772968745 
998	 0,14377697504119 
999	 0,143463769406214 
1000	 0,140731248197468 
1001	 0,141861932385776 
1002	 0,143591347814042 
1003	 0,144261089011751 
1004	 0,144557866196291 
1005	 0,144362812777088 
1006	 0,143640138465323 
1007	 0,143399652923254 
1008	 0,143401211073565 
1009	 0,142836763689914 
1010	 0,144143380672758 
1011	 0,146273797011768 
1012	 0,143450876127032 
1013	 0,143041006943007 
1014	 0,147085803925282 
1015	 0,148155502976636 
1016	 0,147403143647063 
1017	 0,146228591185804 
1018	 0,144977100452949 
1019	 0,144311897067214 
1020	 0,144936464863262 
1021	 0,143420410958895 
1022	 0,141194977328981 
1023	 0,144512684287385 
1024	 0,147575221007503 
1025	 0,148477005843225 
1026	 0,148315952943191 
1027	 0,148629600936118 
1028	 0,150357534886876 
1029	 0,15298073078739 
1030	 0,152979276089966 
1031	 0,146897506837134 
1032	 0,142048912402055 
1033	 0,141197420575197 
1034	 0,146386543089112 
1035	 0,149613366568336 
1036	 0,148190802527449 
1037	 0,14205076748878 
1038	 0,138447873195455 
1039	 0,141248243896503 
1040	 0,150904857819868 
1041	 0,155394620922218 
1042	 0,14647065312529 
1043	 0,142439285508737 
1044	 0,146842365404753 
1045	 0,159548909149805 
1046	 0,159619572627742 
1047	 0,149055950059142 
1048	 0,143587148678326 
1049	 0,145365838947866 
1050	 0,151988795887414 
1051	 0,149183257905896 
1052	 0,148882671682106 
1053	 0,155185094243486 
1054	 0,156846393441939 
1055	 0,150782091375906 
1056	 0,137921059911161 
1057	 0,14401571773828 
1058	 0,156608276861441 
1059	 0,153114694604626 
1060	 0,141504726145748 
1061	 0,132155179882038 
1062	 0,146258212568684 
1063	 0,154330180788853 
1064	 0,151079411173706 
1065	 0,151431102117199 
1066	 0,149294522159814 
1067	 0,143689843807833 
1068	 0,142868002594284 
1069	 0,144788052691617 
1070	 0,147909356275576 
1071	 0,15548381134113 
1072	 0,164809902154441 
1073	 0,171767098001368 
1074	 0,161397759060359 
1075	 0,146001828665683 
