Wavelength	SCO-GRA00383.asd
325	 0,29247635522207 
326	 0,183970130473126 
327	-1,41794168416465E-02 
328	-0,144882029056011 
329	-2,02615314010526E-02 
330	 9,97142803258902E-02 
331	 0,124565154219768 
332	 0,154656089804126 
333	 0,186780473141004 
334	 0,201711834987923 
335	 0,146342848975074 
336	 4,25097236655519E-02 
337	 7,68066825201134E-02 
338	 0,107142099500166 
339	 1,56970649116919E-02 
340	 9,75167540730825E-03 
341	 6,70280280459853E-02 
342	 7,38246630369401E-02 
343	 5,36444462955296E-02 
344	 2,32222795377601E-02 
345	 4,03575917450678E-02 
346	 5,27413442451256E-02 
347	 1,43746287649475E-02 
348	 3,61141721832997E-02 
349	 9,22758560016218E-02 
350	 5,83886034522274E-02 
351	 2,57639908393971E-02 
352	 2,56578771312039E-02 
353	 0,052576641005442 
354	 7,35484312600313E-02 
355	 5,38283284914206E-02 
356	 3,14721101207918E-02 
357	 0,0212441590478 
358	 3,11097062876277E-02 
359	 3,42530917161109E-02 
360	 1,93519406352665E-02 
361	 7,86666932010672E-03 
362	 8,57284420575499E-03 
363	 2,86769317516667E-02 
364	 3,93096613512484E-02 
365	 3,52089799378207E-02 
366	 2,67545689812883E-02 
367	 2,44300579389731E-02 
368	 3,36087287276853E-02 
369	 4,14753613825643E-02 
370	 3,98076712844081E-02 
371	 1,67794762304949E-02 
372	 1,36157138730601E-02 
373	 3,58420396296759E-02 
374	 5,17298976525709E-02 
375	 5,46745029032748E-02 
376	 4,24237998238609E-02 
377	 3,54980538517553E-02 
378	 3,42854602589862E-02 
379	 2,94953930543347E-02 
380	 2,58715493424823E-02 
381	 2,54001029264581E-02 
382	 2,93384030772022E-02 
383	 3,57480020027748E-02 
384	 4,25255810573179E-02 
385	 5,16665692871786E-02 
386	 5,57935311127552E-02 
387	 3,48964160209708E-02 
388	 2,73006471932048E-02 
389	 4,33170113514514E-02 
390	 4,40959673215617E-02 
391	 3,20994117279023E-02 
392	 1,41548428158217E-02 
393	 1,82007067435231E-02 
394	 3,73663911876373E-02 
395	 3,05821592239819E-02 
396	 3,03197691949442E-02 
397	 4,66286154389545E-02 
398	 2,83609592148042E-02 
399	 4,85212336733564E-03 
400	 2,73605867274356E-02 
401	 3,53320892091249E-02 
402	 2,25695409107011E-02 
403	 2,57937932803283E-02 
404	 3,17714158203587E-02 
405	 3,09533550793905E-02 
406	 2,40990315740804E-02 
407	 0,015581538504342 
408	 1,27398591003428E-02 
409	 1,42041077830714E-02 
410	 1,76659333471796E-02 
411	 1,49820488509399E-02 
412	 1,19338023948789E-02 
413	 1,41358340839442E-02 
414	 1,79944934941162E-02 
415	 2,02324094284548E-02 
416	 1,38902441595734E-02 
417	 1,13441370586418E-02 
418	 0,016628004446767 
419	 0,019956138607477 
420	 2,09429931532952E-02 
421	 2,03755128384323E-02 
422	 2,19843313279803E-02 
423	 2,40138200558332E-02 
424	 0,017668492241714 
425	 1,10842291552724E-02 
426	 9,87510687729864E-03 
427	 1,46451860581402E-02 
428	 2,04191249657705E-02 
429	 1,85392257170204E-02 
430	 1,57520457249405E-02 
431	 1,47451352989251E-02 
432	 1,77108337092832E-02 
433	 2,06329172881595E-02 
434	 2,00515938577891E-02 
435	 0,020112478974657 
436	 1,99712834120709E-02 
437	 1,49606703483122E-02 
438	 1,27123995491139E-02 
439	 1,54928870471927E-02 
440	 1,63419736174781E-02 
441	 1,63917772711524E-02 
442	 1,79183580297151E-02 
443	 0,015876366702184 
444	 1,18689812305399E-02 
445	 1,50339017574204E-02 
446	 1,83126643471726E-02 
447	 0,017669341561478 
448	 1,90918069862846E-02 
449	 2,13310430131154E-02 
450	 2,07776063192653E-02 
451	 0,019026064169821 
452	 1,70463522227736E-02 
453	 0,016601684812 
454	 1,71183264069012E-02 
455	 1,79181622466042E-02 
456	 0,018202214530216 
457	 1,85780800170322E-02 
458	 2,20416387323476E-02 
459	 2,10509834369731E-02 
460	 1,40804937593761E-02 
461	 1,35185656833992E-02 
462	 1,58286298732956E-02 
463	 1,46115412439674E-02 
464	 1,59234709249774E-02 
465	 1,90772767361954E-02 
466	 1,67216931849368E-02 
467	 1,48680587620149E-02 
468	 1,70976115776991E-02 
469	 1,72661369424826E-02 
470	 1,62792640283883E-02 
471	 1,77173640121041E-02 
472	 1,90640856931331E-02 
473	 0,019427929516372 
474	 1,86986029575229E-02 
475	 1,75658355158688E-02 
476	 1,66927811104845E-02 
477	 1,52608730520851E-02 
478	 1,41369379988156E-02 
479	 1,60862188922201E-02 
480	 1,77234126948689E-02 
481	 1,75756890153888E-02 
482	 1,76399815809759E-02 
483	 1,78419546895539E-02 
484	 0,017747087229667 
485	 1,79798009836301E-02 
486	 1,83044994724244E-02 
487	 1,71060418489871E-02 
488	 1,63231497614661E-02 
489	 1,72347883752965E-02 
490	 1,68702129198152E-02 
491	 1,56272012390953E-02 
492	 1,56769716427631E-02 
493	 1,47322210196873E-02 
494	 1,28686235547747E-02 
495	 1,46895832071912E-02 
496	 1,72030100436955E-02 
497	 1,67607586319256E-02 
498	 1,75881043121411E-02 
499	 1,89824574221422E-02 
500	 1,54212322124034E-02 
501	 1,40669668705603E-02 
502	 1,80017377683237E-02 
503	 0,016637541886062 
504	 1,32038570649382E-02 
505	 1,58325575535288E-02 
506	 1,71438579878229E-02 
507	 0,01572362205677 
508	 1,52476370465117E-02 
509	 1,56322221192987E-02 
510	 1,65889748738134E-02 
511	 1,67889603783321E-02 
512	 1,63412958453439E-02 
513	 1,64114522084272E-02 
514	 1,56594046279303E-02 
515	 1,41363499042209E-02 
516	 1,59349872867322E-02 
517	 1,84708177108511E-02 
518	 1,77230423112733E-02 
519	 1,67293883344007E-02 
520	 1,63573688757175E-02 
521	 1,67054477922943E-02 
522	 1,71120869383926E-02 
523	 0,017090750280153 
524	 1,69254486129728E-02 
525	 1,68130025214455E-02 
526	 1,71743287937727E-02 
527	 1,70855737671373E-02 
528	 1,64146514102892E-02 
529	 1,63585245382313E-02 
530	 1,63967468739842E-02 
531	 1,58488559191292E-02 
532	 1,58185360504376E-02 
533	 1,62085599318779E-02 
534	 0,015862706785341 
535	 1,57279525961835E-02 
536	 1,62842058045768E-02 
537	 1,66368840819068E-02 
538	 1,66759951699993E-02 
539	 1,64273645109711E-02 
540	 1,62361591303134E-02 
541	 1,61436764318767E-02 
542	 1,56051978567961E-02 
543	 1,54050496622198E-02 
544	 1,62757553853584E-02 
545	 1,70760426377011E-02 
546	 1,73582765362135E-02 
547	 1,65140289884784E-02 
548	 1,61778210221809E-02 
549	 0,016999378645427 
550	 1,73404853468516E-02 
551	 1,70211320001279E-02 
552	 1,60198231429282E-02 
553	 1,58790689494674E-02 
554	 1,65857024816723E-02 
555	 1,60350266298432E-02 
556	 1,54021436433301E-02 
557	 1,56868480218602E-02 
558	 1,63392728595956E-02 
559	 1,67354574584716E-02 
560	 1,54347007833062E-02 
561	 1,48336839725096E-02 
562	 1,56648267728096E-02 
563	 1,57595435937245E-02 
564	 1,55298089815274E-02 
565	 1,57869346244399E-02 
566	 1,53770171866592E-02 
567	 1,46218756308014E-02 
568	 1,56786523013399E-02 
569	 1,66992351475733E-02 
570	 1,64395263861091E-02 
571	 1,63192682757197E-02 
572	 1,64559566906708E-02 
573	 1,66458457940222E-02 
574	 1,66241665300666E-02 
575	 0,016402709892499 
576	 1,65788687940868E-02 
577	 1,70760380904505E-02 
578	 1,77365830057095E-02 
579	 1,78152077137455E-02 
580	 1,73686498906437E-02 
581	 1,71348948464902E-02 
582	 1,71061581342142E-02 
583	 1,72730402248083E-02 
584	 1,73845993793853E-02 
585	 1,75777886988964E-02 
586	 1,81763404499745E-02 
587	 1,87181707222577E-02 
588	 1,89129160351721E-02 
589	 1,81050081670845E-02 
590	 1,77732510222225E-02 
591	 1,91906417515683E-02 
592	 1,95813399228042E-02 
593	 1,88949581389127E-02 
594	 1,86046077472669E-02 
595	 0,018208255097013 
596	 1,76542797717758E-02 
597	 1,79169274864363E-02 
598	 1,82716024316995E-02 
599	 1,74833725720243E-02 
600	 1,72719856020027E-02 
601	 0,017862785974449 
602	 1,81902260027748E-02 
603	 1,82070706181447E-02 
604	 1,79330319954138E-02 
605	 1,79733301058525E-02 
606	 1,81319245554181E-02 
607	 1,76248065915927E-02 
608	 1,72139110648961E-02 
609	 1,71180220232376E-02 
610	 1,66703959308386E-02 
611	 1,65680411180528E-02 
612	 1,77040568601488E-02 
613	 0,018365079432031 
614	 1,82894150547071E-02 
615	 0,018257644679584 
616	 1,79352101103442E-02 
617	 1,72388592478273E-02 
618	 1,73490580665092E-02 
619	 1,76972444433351E-02 
620	 1,67408195302256E-02 
621	 1,64050291155663E-02 
622	 1,70827126127542E-02 
623	 1,74377907702861E-02 
624	 1,73860821504096E-02 
625	 1,69385607624101E-02 
626	 0,016366400574415 
627	 0,01599912022983 
628	 1,65234559035353E-02 
629	 1,71151358767116E-02 
630	 1,73126906298312E-02 
631	 1,71677151136059E-02 
632	 0,017214478166836 
633	 0,018365987283394 
634	 1,84398909790122E-02 
635	 1,72569207525998E-02 
636	 0,016885680327755 
637	 1,69779899077214E-02 
638	 1,72096207497597E-02 
639	 1,80517586233956E-02 
640	 1,91295657984941E-02 
641	 1,95172891310424E-02 
642	 1,90935891574282E-02 
643	 1,81041543549942E-02 
644	 1,84194782115628E-02 
645	 1,91859867028864E-02 
646	 1,90716208767553E-02 
647	 1,88601605210829E-02 
648	 1,88795679861029E-02 
649	 1,97166069250172E-02 
650	 2,00307525512673E-02 
651	 1,90514409744602E-02 
652	 1,85356544724071E-02 
653	 1,85641357322768E-02 
654	 1,87491498122899E-02 
655	 1,87458191020889E-02 
656	 1,84511893324369E-02 
657	 0,018206899023109 
658	 1,78571306149294E-02 
659	 0,017241373794476 
660	 1,68720185208466E-02 
661	 0,016794850176727 
662	 1,68031594516576E-02 
663	 1,67483382185248E-02 
664	 1,66100534162017E-02 
665	 1,69626520246207E-02 
666	 1,73065425858792E-02 
667	 1,67677050184832E-02 
668	 0,016360988817339 
669	 1,64007013842762E-02 
670	 1,69475188675013E-02 
671	 1,71167001020289E-02 
672	 1,63052581620872E-02 
673	 1,61007742867769E-02 
674	 1,65940951010494E-02 
675	 1,73919503834376E-02 
676	 1,78202103515388E-02 
677	 1,76236985456339E-02 
678	 1,72060390160377E-02 
679	 1,69538540333996E-02 
680	 0,01726408870888 
681	 1,73561151753681E-02 
682	 0,017245538816435 
683	 1,75909233298671E-02 
684	 1,81328852173323E-02 
685	 1,86450951151298E-02 
686	 1,86706267885703E-02 
687	 1,84534408620045E-02 
688	 1,85193507029643E-02 
689	 1,86796881453243E-02 
690	 1,90082273795538E-02 
691	 1,99475582758778E-02 
692	 2,10683022494675E-02 
693	 2,19760830566484E-02 
694	 2,28912854176249E-02 
695	 2,40592716176216E-02 
696	 2,58944624896085E-02 
697	 2,83559688108805E-02 
698	 0,031371298288707 
699	 3,45949625721837E-02 
700	 3,80281562666767E-02 
701	 4,17162549216614E-02 
702	 0,045726318758273 
703	 5,01293905209725E-02 
704	 5,50667803802706E-02 
705	 6,04150154757845E-02 
706	 6,59859038567288E-02 
707	 7,09455429153024E-02 
708	 7,56445304124137E-02 
709	 0,080951651695419 
710	 8,65555874398792E-02 
711	 9,22596881879257E-02 
712	 9,77044843881539E-02 
713	 0,102911856595541 
714	 0,10789261569811 
715	 0,112452508624248 
716	 0,116747530212405 
717	 0,121294901696107 
718	 0,125546751437119 
719	 0,129302032419836 
720	 0,132818296964465 
721	 0,136329885737899 
722	 0,140095481481517 
723	 0,143476807267959 
724	 0,146309427218704 
725	 0,148597936823108 
726	 0,150900376621272 
727	 0,153500707492782 
728	 0,155572447281329 
729	 0,157277654850932 
730	 0,15909037519923 
731	 0,160982012449705 
732	 0,162803618426309 
733	 0,163897325657025 
734	 0,164865166446106 
735	 0,166230920057431 
736	 0,167475319038322 
737	 0,168531296885646 
738	 0,169480843776831 
739	 0,170289651907341 
740	 0,170980439350832 
741	 0,171730601877709 
742	 0,172385127460629 
743	 0,172760166003368 
744	 0,173513397879844 
745	 0,174476507091023 
746	 0,174654801295817 
747	 0,174818974414404 
748	 0,175312053418993 
749	 0,175376992018151 
750	 0,175417625064475 
751	 0,176181486010691 
752	 0,176738637717564 
753	 0,176929248457689 
754	 0,1772221445861 
755	 0,177501286298439 
756	 0,177682713863781 
757	 0,177765989720177 
758	 0,177946300742 
759	 0,178713568227368 
760	 0,178651418693564 
761	 0,177652016295024 
762	 0,177503347000274 
763	 0,177936215839137 
764	 0,17857405334738 
765	 0,179079330766956 
766	 0,179324061042069 
767	 0,179201232686193 
768	 0,179212177880505 
769	 0,179513762122353 
770	 0,179647410655589 
771	 0,179650657333757 
772	 0,179617290237536 
773	 0,179642852909834 
774	 0,179758684255142 
775	 0,180019388094837 
776	 0,180011749609885 
777	 0,179625509332383 
778	 0,179712346299846 
779	 0,180082864094332 
780	 0,180317436896356 
781	 0,180442166336532 
782	 0,1804354084891 
783	 0,180241562241759 
784	 0,180123888144237 
785	 0,180260170916012 
786	 0,180562403399392 
787	 0,18081066472572 
788	 0,180643296453341 
789	 0,180526997633319 
790	 0,180576541810379 
791	 0,180583255720475 
792	 0,18070702262816 
793	 0,18102156209285 
794	 0,180885778835355 
795	 0,180483758177127 
796	 0,180439784677316 
797	 0,180348803637849 
798	 0,180196148074389 
799	 0,180570111008948 
800	 0,18073573680255 
801	 0,180070870686308 
802	 0,180131477395876 
803	 0,180717596499963 
804	 0,180480050412724 
805	 0,180663727505524 
806	 0,181432606664738 
807	 0,181155338246231 
808	 0,180680549713239 
809	 0,180999212854657 
810	 0,181093149900884 
811	 0,180956087627823 
812	 0,181187632417496 
813	 0,181221196012702 
814	 0,18094939039503 
815	 0,181253736865501 
816	 0,18159915809042 
817	 0,181292934848313 
818	 0,181400757228763 
819	 0,181820270567142 
820	 0,181497984898711 
821	 0,181204091385995 
822	 0,181303570437787 
823	 0,181577677455201 
824	 0,181902865084808 
825	 0,182146042741524 
826	 0,182265681484336 
827	 0,182249989035 
828	 0,182085333851443 
829	 0,182032495888677 
830	 0,182208257902799 
831	 0,182350612240784 
832	 0,182437471929869 
833	 0,182483063701362 
834	 0,182352446494302 
835	 0,182161049489189 
836	 0,182396788523544 
837	 0,182539589225528 
838	 0,18234128724263 
839	 0,18221651990773 
840	 0,182190074492607 
841	 0,182227696977393 
842	 0,182178361673143 
843	 0,182079744318389 
844	 0,18220403835815 
845	 0,182309904081237 
846	 0,182288902000869 
847	 0,182433625400715 
848	 0,182493026905689 
849	 0,182084302408592 
850	 0,181812118256637 
851	 0,181757428029801 
852	 0,181597116443248 
853	 0,181557955136752 
854	 0,181728620230063 
855	 0,181910351627456 
856	 0,181849644972884 
857	 0,181255438761159 
858	 0,18069479184261 
859	 0,18042646620684 
860	 0,180755227891338 
861	 0,180963168585132 
862	 0,180697391861651 
863	 0,180373844995452 
864	 0,180285539226859 
865	 0,180733105085415 
866	 0,181208221535192 
867	 0,181386756178573 
868	 0,180609078745171 
869	 0,180553140126857 
870	 0,181713520959988 
871	 0,181722876539126 
872	 0,181152567825277 
873	 0,180964939558219 
874	 0,181115388161277 
875	 0,181489231852558 
876	 0,181688498151856 
877	 0,182086986218903 
878	 0,182637970668748 
879	 0,182222614860333 
880	 0,181705621462751 
881	 0,182085665434977 
882	 0,182836542235686 
883	 0,183466268612082 
884	 0,182960627058537 
885	 0,182531193474844 
886	 0,182676163115916 
887	 0,183410839324823 
888	 0,183932246643365 
889	 0,183551553234772 
890	 0,183418770344025 
891	 0,183486437232599 
892	 0,183145321726332 
893	 0,182964621772254 
894	 0,183166036119568 
895	 0,183922671604302 
896	 0,184275412583643 
897	 0,183556391315686 
898	 0,182786859161648 
899	 0,182689426592252 
900	 0,184272291547791 
901	 0,184434734497581 
902	 0,182965694653064 
903	 0,182745634044308 
904	 0,182957241876811 
905	 0,183080404606542 
906	 0,18320249951009 
907	 0,183460926714015 
908	 0,184049933079655 
909	 0,183567482757533 
910	 0,182492593687451 
911	 0,183495971345774 
912	 0,184259642451655 
913	 0,18378900494756 
914	 0,183269567893551 
915	 0,182879656635312 
916	 0,182698336240396 
917	 0,182563272479855 
918	 0,182303402709791 
919	 0,181497687674659 
920	 0,181284228624341 
921	 0,181838307257361 
922	 0,181964506508285 
923	 0,181539145804227 
924	 0,180672480676983 
925	 0,181031855128315 
926	 0,182064152234484 
927	 0,182344362996312 
928	 0,181377205307257 
929	 0,179777678008885 
930	 0,180556548674408 
931	 0,180579640100505 
932	 0,178412965213673 
933	 0,177732138530836 
934	 0,178157114888092 
935	 0,178637459538512 
936	 0,178962155092047 
937	 0,178700892632637 
938	 0,176887032974406 
939	 0,175553371932179 
940	 0,175358833405367 
941	 0,174987476778755 
942	 0,174800948628216 
943	 0,175078277532811 
944	 0,174792522567861 
945	 0,173974945861554 
946	 0,172997232347408 
947	 0,172610432325924 
948	 0,172532480042962 
949	 0,170879315340785 
950	 0,168921192982905 
951	 0,167509062468228 
952	 0,166733483415923 
953	 0,166924663689164 
954	 0,168240205106249 
955	 0,166331654895648 
956	 0,162580844727852 
957	 0,162849507484927 
958	 0,163875814993211 
959	 0,16440252404339 
960	 0,164034688033852 
961	 0,163105904554185 
962	 0,162007986722018 
963	 0,161574897466506 
964	 0,16106642713375 
965	 0,159177781543654 
966	 0,159821794732065 
967	 0,162377025870873 
968	 0,16195781852628 
969	 0,161169021744929 
970	 0,160913244127098 
971	 0,159759879492079 
972	 0,159306512992648 
973	 0,160781508637675 
974	 0,160524087647989 
975	 0,159457354209526 
976	 0,160361090277873 
977	 0,160607209654027 
978	 0,160020774368771 
979	 0,160473109177909 
980	 0,161195072109015 
981	 0,161652011530405 
982	 0,161262073478306 
983	 0,160138947047851 
984	 0,158678244897429 
985	 0,15960756815325 
986	 0,161096537899973 
987	 0,158603449901609 
988	 0,157444569660118 
989	 0,158516073076225 
990	 0,15903037048894 
991	 0,159932025575595 
992	 0,161233655885107 
993	 0,160135473752021 
994	 0,159560417018696 
995	 0,162322988095644 
996	 0,162333500629537 
997	 0,160524156244883 
998	 0,160860944226168 
999	 0,161748453348751 
1000	 0,162673946924194 
1001	 0,163391863085394 
1002	 0,16356747173332 
1003	 0,16320293503398 
1004	 0,1633591467269 
1005	 0,163559712606914 
1006	 0,1634701253792 
1007	 0,165900139063801 
1008	 0,168473766147214 
1009	 0,166272252138644 
1010	 0,166294653934837 
1011	 0,16824187171887 
1012	 0,164501469494841 
1013	 0,162149827985677 
1014	 0,164438550146634 
1015	 0,170939081716591 
1016	 0,17360235746039 
1017	 0,167038020325253 
1018	 0,16597028479342 
1019	 0,168956040774297 
1020	 0,170393946865111 
1021	 0,169457192559753 
1022	 0,167513769090754 
1023	 0,169226999335727 
1024	 0,171548554848719 
1025	 0,173262497335508 
1026	 0,173890827613199 
1027	 0,17396457740389 
1028	 0,173899743687623 
1029	 0,173715122914313 
1030	 0,17322801519112 
1031	 0,172339525451139 
1032	 0,1731651434993 
1033	 0,174282181953973 
1034	 0,171849664066859 
1035	 0,17560226518241 
1036	 0,183390866473409 
1037	 0,17796984041935 
1038	 0,170787563303079 
1039	 0,168741408040515 
1040	 0,177517350390188 
1041	 0,184027046342863 
1042	 0,177898671265746 
1043	 0,170076002151064 
1044	 0,169233487772299 
1045	 0,183435147894017 
1046	 0,18648145249723 
1047	 0,179606783379823 
1048	 0,179576916360874 
1049	 0,184145744242168 
1050	 0,189186412014213 
1051	 0,179768151533629 
1052	 0,176074594209331 
1053	 0,18634112356281 
1054	 0,195843253678693 
1055	 0,190934350236251 
1056	 0,165580312703746 
1057	 0,165823639265708 
1058	 0,179685656860978 
1059	 0,180531060903582 
1060	 0,174891885957879 
1061	 0,169639456056333 
1062	 0,178994045280956 
1063	 0,184236288922212 
1064	 0,181571209127954 
1065	 0,179621350749013 
1066	 0,169983401746461 
1067	 0,154313008920549 
1068	 0,159497084945241 
1069	 0,173809140660905 
1070	 0,185090048073473 
1071	 0,180591584014506 
1072	 0,177135476607989 
1073	 0,193718416145684 
1074	 0,183269123258266 
1075	 0,163824001326951 
