Wavelength	SCO-GRA00793.asd
325	 0,330829195965224 
326	 0,299975548308575 
327	 0,127109702816858 
328	-0,107979715336591 
329	-6,68699077964728E-02 
330	 7,55648385636693E-02 
331	 0,206062933289053 
332	 0,16215566531785 
333	 4,48982938138226E-02 
334	 9,38717409472031E-02 
335	 0,109415830734216 
336	 5,62653688796673E-02 
337	 0,116823739590802 
338	 0,142943164442733 
339	 1,79496850489577E-02 
340	-1,68416207041653E-02 
341	 0,022019769080143 
342	 1,97556775790808E-02 
343	 3,50724822316246E-02 
344	 6,88616541264223E-02 
345	 4,05667097246395E-02 
346	-7,75354288196347E-03 
347	-4,03068299099051E-02 
348	-9,96412512769363E-04 
349	 6,84562230930619E-02 
350	 2,88663251964127E-02 
351	 1,48872078256505E-02 
352	 5,79744137467474E-02 
353	 5,81911321917076E-02 
354	 4,31472672669174E-02 
355	 0,052209922497948 
356	 1,79736474457076E-02 
357	-2,98084199882134E-02 
358	 1,57462329054658E-02 
359	 5,17249638453399E-02 
360	 3,24924457965498E-02 
361	 1,48904812130591E-02 
362	 2,80617841818175E-03 
363	-1,03889796531941E-02 
364	 3,37472025771376E-03 
365	 3,40680603049999E-02 
366	 2,81806091426903E-02 
367	 9,08289900996502E-03 
368	-5,06055324305389E-03 
369	 1,32382357972523E-02 
370	 3,36307916898795E-02 
371	-1,87526972085311E-03 
372	-1,38872215990727E-02 
373	 0,012292542613211 
374	 3,40661057048814E-02 
375	 4,50419955271954E-02 
376	 4,25785518858451E-02 
377	 2,95167251687494E-02 
378	 1,53821571506397E-02 
379	 1,53241604699901E-02 
380	 2,32486310349676E-02 
381	 0,031770650804626 
382	 1,55116174307595E-02 
383	 7,58570079919889E-03 
384	 3,80177555801807E-02 
385	 0,043020346099844 
386	 2,29846822126881E-02 
387	 7,14360638796258E-04 
388	 8,99387406208292E-03 
389	 0,048432609986461 
390	 4,34823935713069E-02 
391	 1,96188427213153E-02 
392	 1,42218066121119E-02 
393	 1,63674051662784E-02 
394	 2,21866336822265E-02 
395	 2,60050067902374E-02 
396	 3,01674836704815E-02 
397	 3,45333287547584E-02 
398	 2,90433959074191E-02 
399	 2,17639775652494E-02 
400	 2,59679648443479E-02 
401	 2,76627397885131E-02 
402	 2,48229008626967E-02 
403	 2,46948921814272E-02 
404	 2,10553939112882E-02 
405	 1,09184671633298E-02 
406	 1,19113498361876E-02 
407	 1,76755153213999E-02 
408	 8,91671014903687E-03 
409	 9,65562846173466E-03 
410	 2,13538012404563E-02 
411	 1,77943116139388E-02 
412	 1,12970938752771E-02 
413	 1,42063958815109E-02 
414	 1,82416244192357E-02 
415	 2,06984612804654E-02 
416	 1,88902122868759E-02 
417	 1,66782751746884E-02 
418	 1,61198745986004E-02 
419	 1,86820559160985E-02 
420	 0,020745964146672 
421	 1,78319780969686E-02 
422	 1,77988750380961E-02 
423	 1,96579376360642E-02 
424	 1,36526476612542E-02 
425	 9,02732779743453E-03 
426	 1,14538690026504E-02 
427	 1,71565719724839E-02 
428	 2,17099930676071E-02 
429	 1,80992772038681E-02 
430	 1,69206394144377E-02 
431	 1,98564253934708E-02 
432	 1,91543576882412E-02 
433	 1,78008413299056E-02 
434	 1,86013620124429E-02 
435	 1,94694731239967E-02 
436	 1,96513349933701E-02 
437	 1,82993301580782E-02 
438	 1,62272707927286E-02 
439	 1,44299831608595E-02 
440	 1,63487439565415E-02 
441	 1,89452732354967E-02 
442	 1,81192373730857E-02 
443	 1,61884081255848E-02 
444	 1,43971365836446E-02 
445	 1,48421880539823E-02 
446	 1,50893965391326E-02 
447	 1,38915478474535E-02 
448	 1,46843192655261E-02 
449	 1,59261317229746E-02 
450	 1,39491862743436E-02 
451	 1,19338211351239E-02 
452	 1,12284467849462E-02 
453	 1,27124079541547E-02 
454	 1,48650897327999E-02 
455	 1,62068824363503E-02 
456	 1,63485600152187E-02 
457	 1,59533789839339E-02 
458	 1,72952589733448E-02 
459	 1,72648520308028E-02 
460	 1,50154126200389E-02 
461	 1,39534506167836E-02 
462	 1,41455618268356E-02 
463	 1,51686491284663E-02 
464	 1,59100302303623E-02 
465	 1,59303733051508E-02 
466	 0,014873749186742 
467	 1,46153256981764E-02 
468	 0,016109542799314 
469	 1,58585563360196E-02 
470	 1,47369317034332E-02 
471	 0,015418816691504 
472	 1,69293032478051E-02 
473	 1,82852362498548E-02 
474	 1,63438481451853E-02 
475	 1,43291692384441E-02 
476	 1,53982503552378E-02 
477	 1,51532773712511E-02 
478	 1,41359794063667E-02 
479	 1,64517322408619E-02 
480	 1,83041216053297E-02 
481	 1,81323375667771E-02 
482	 1,84199792194693E-02 
483	 0,01902366524743 
484	 1,94261851262641E-02 
485	 1,78050253811565E-02 
486	 1,49037314296912E-02 
487	 1,52386024835436E-02 
488	 1,65149099288381E-02 
489	 1,68531746595282E-02 
490	 1,64557968092321E-02 
491	 1,54579292156204E-02 
492	 1,38661039851031E-02 
493	 1,37706993332473E-02 
494	 1,54497364645589E-02 
495	 0,015795776145849 
496	 1,57913950228531E-02 
497	 1,67916336944758E-02 
498	 1,70172691060639E-02 
499	 1,62216177822751E-02 
500	 1,46325075743951E-02 
501	 1,42149871579546E-02 
502	 1,57183902391553E-02 
503	 1,52555732395024E-02 
504	 1,39414624129862E-02 
505	 1,46653562722354E-02 
506	 1,46723096057447E-02 
507	 1,40362991185998E-02 
508	 1,68418222407458E-02 
509	 1,89805229948752E-02 
510	 1,69065712677991E-02 
511	 1,67711833191853E-02 
512	 1,82094225268518E-02 
513	 1,71468756064914E-02 
514	 0,015821180077204 
515	 1,53972960467572E-02 
516	 1,67162583014056E-02 
517	 1,85760900956705E-02 
518	 1,92979139563815E-02 
519	 1,90865831766869E-02 
520	 1,82224286493604E-02 
521	 1,74437708734255E-02 
522	 1,73596174146935E-02 
523	 1,82193362809652E-02 
524	 1,77968522429233E-02 
525	 1,66337182617349E-02 
526	 1,67866864633241E-02 
527	 1,68120590030427E-02 
528	 1,63696871483373E-02 
529	 1,62698720559618E-02 
530	 1,64019883691223E-02 
531	 1,65728011417083E-02 
532	 1,68944335096024E-02 
533	 1,72201536013385E-02 
534	 1,70846036599558E-02 
535	 1,68888751130697E-02 
536	 1,68583591639172E-02 
537	 1,66524642699689E-02 
538	 1,65642110419769E-02 
539	 1,72503040248043E-02 
540	 1,76119766900842E-02 
541	 1,73145998219505E-02 
542	 0,016493462135197 
543	 0,016206118407742 
544	 1,73728638618874E-02 
545	 1,77162080006485E-02 
546	 1,72467419240013E-02 
547	 1,73961112488806E-02 
548	 1,75564309175076E-02 
549	 1,74972372783245E-02 
550	 1,75882295939431E-02 
551	 1,78225019394911E-02 
552	 1,81489927667749E-02 
553	 1,81760558164266E-02 
554	 1,78381582240129E-02 
555	 1,73498966851413E-02 
556	 1,70831045256919E-02 
557	 1,72900454740956E-02 
558	 1,70756409700701E-02 
559	 1,66781513954754E-02 
560	 1,71565314807093E-02 
561	 1,74805153198739E-02 
562	 1,72977843970507E-02 
563	 1,72020168647809E-02 
564	 1,72420489438634E-02 
565	 1,74147434549575E-02 
566	 1,70500645777337E-02 
567	 1,64333340504348E-02 
568	 1,71884249534591E-02 
569	 1,80431525946842E-02 
570	 0,018098961647149 
571	 1,79225588572979E-02 
572	 1,77994742097393E-02 
573	 1,81801711549854E-02 
574	 1,83470972210744E-02 
575	 1,82309574843834E-02 
576	 1,89419182249689E-02 
577	 1,96603106416767E-02 
578	 0,019408880270223 
579	 1,90829716393261E-02 
580	 1,90628663162948E-02 
581	 1,98508832958514E-02 
582	 2,05632259367912E-02 
583	 2,06373263238898E-02 
584	 2,00226603427457E-02 
585	 1,95313707458272E-02 
586	 2,05950261641274E-02 
587	 2,15291077663026E-02 
588	 2,17929000160628E-02 
589	 2,15876882966711E-02 
590	 2,13222744624251E-02 
591	 2,13714404858055E-02 
592	 2,14822661177914E-02 
593	 2,16347602830541E-02 
594	 2,19847649820627E-02 
595	 0,021922023040636 
596	 2,13643627688906E-02 
597	 2,19583350651346E-02 
598	 2,25737687658397E-02 
599	 2,12446925814562E-02 
600	 2,10706031144856E-02 
601	 2,22002316607461E-02 
602	 2,16063369207993E-02 
603	 2,09004527576956E-02 
604	 2,13076237020791E-02 
605	 2,11323866880637E-02 
606	 2,04538447046518E-02 
607	 2,01492601325871E-02 
608	 1,98245333356284E-02 
609	 0,019533255501468 
610	 2,02778357772478E-02 
611	 2,11225406718002E-02 
612	 0,020842625080789 
613	 2,07449446866083E-02 
614	 2,10058313935687E-02 
615	 0,021221252963571 
616	 2,08222308830411E-02 
617	 1,96203854266342E-02 
618	 1,93895529640713E-02 
619	 1,98246245897241E-02 
620	 1,98100607858683E-02 
621	 0,019649928990428 
622	 1,94308815278354E-02 
623	 1,92471859184398E-02 
624	 1,91355126015653E-02 
625	 0,0191205318304 
626	 1,90658956773914E-02 
627	 1,90256533603899E-02 
628	 1,92684193834192E-02 
629	 1,94547624931042E-02 
630	 0,019431631079329 
631	 1,93778727371856E-02 
632	 1,97070329260538E-02 
633	 2,11281321410784E-02 
634	 2,11436145192595E-02 
635	 1,96822552706943E-02 
636	 1,96909370419251E-02 
637	 2,02689852252579E-02 
638	 2,06090031485837E-02 
639	 2,15267689800477E-02 
640	 2,27142404828636E-02 
641	 2,33065349684745E-02 
642	 2,28535650748958E-02 
643	 0,021547726501199 
644	 2,18250022695538E-02 
645	 2,26669841066943E-02 
646	 2,24547989136379E-02 
647	 2,25542190700732E-02 
648	 2,29427272806574E-02 
649	 2,23545139905796E-02 
650	 2,19504393897092E-02 
651	 2,24048419201926E-02 
652	 2,22916932948043E-02 
653	 2,17295181344669E-02 
654	 2,13869211784819E-02 
655	 0,02115893232358 
656	 2,09326883801054E-02 
657	 2,02226115660498E-02 
658	 1,94525986087337E-02 
659	 1,90837100289327E-02 
660	 1,87731468110914E-02 
661	 1,84955999844063E-02 
662	 1,84080270286406E-02 
663	 1,82332568442694E-02 
664	 1,79217922644164E-02 
665	 1,82643243656834E-02 
666	 1,86503310914511E-02 
667	 1,80100047578349E-02 
668	 1,72878052359092E-02 
669	 1,68747839300718E-02 
670	 1,70840392739016E-02 
671	 1,74813325874185E-02 
672	 1,77016847211384E-02 
673	 0,017900536020448 
674	 1,80791950471717E-02 
675	 1,82042201844561E-02 
676	 1,83330195221439E-02 
677	 1,84168219079651E-02 
678	 1,80596985301331E-02 
679	 1,76536178757998E-02 
680	 1,76915353396137E-02 
681	 0,017761128200743 
682	 1,79358349313618E-02 
683	 1,87898174767791E-02 
684	 1,95490083258754E-02 
685	 1,97811220877622E-02 
686	 2,01235319254572E-02 
687	 2,04489009689012E-02 
688	 2,03186500737537E-02 
689	 2,08151070655044E-02 
690	 0,022048055763445 
691	 2,27983932937626E-02 
692	 2,38850596661392E-02 
693	 2,60043644928375E-02 
694	 0,027661108503339 
695	 2,91370928400832E-02 
696	 3,18486516734552E-02 
697	 3,50035062546575E-02 
698	 3,83580407325963E-02 
699	 4,24553517109209E-02 
700	 4,69091830003138E-02 
701	 5,11684296120427E-02 
702	 5,58289553137095E-02 
703	 6,08480034137284E-02 
704	 0,065560465876029 
705	 0,070655914541326 
706	 7,64493172133054E-02 
707	 8,15948666335365E-02 
708	 0,086410519739954 
709	 9,19075150486815E-02 
710	 9,70494838377161E-02 
711	 0,101628633325885 
712	 0,106341231365141 
713	 0,110836025259393 
714	 0,114785045131073 
715	 0,118958148500175 
716	 0,123148328691532 
717	 0,126409445715005 
718	 0,129616291432359 
719	 0,133029996708768 
720	 0,135887468947522 
721	 0,138357996448168 
722	 0,140746306908228 
723	 0,143080294057856 
724	 0,145281236619065 
725	 0,146980900866738 
726	 0,148689431407953 
727	 0,150652520720261 
728	 0,152080849468692 
729	 0,153165997819599 
730	 0,15440163404793 
731	 0,156013029099303 
732	 0,157756065520634 
733	 0,158214995427987 
734	 0,158563673940628 
735	 0,159815414885155 
736	 0,160792400912866 
737	 0,161449117458583 
738	 0,162223065740736 
739	 0,162853439794777 
740	 0,163328045539678 
741	 0,164094145243054 
742	 0,16485100568536 
743	 0,165219583476124 
744	 0,165658701826101 
745	 0,166180758742529 
746	 0,166445309749593 
747	 0,166888710100908 
748	 0,167647011924589 
749	 0,167870358589888 
750	 0,167993636158178 
751	 0,168851364013204 
752	 0,169253397016113 
753	 0,169134998581802 
754	 0,169578620297316 
755	 0,170007884185615 
756	 0,170048160938105 
757	 0,170417771729205 
758	 0,17096192072172 
759	 0,171159154378876 
760	 0,171234638536969 
761	 0,171316597916267 
762	 0,171628676335046 
763	 0,172084795258764 
764	 0,172574331997604 
765	 0,172941144192863 
766	 0,173119169893704 
767	 0,172964049148845 
768	 0,173154969212442 
769	 0,173868804878984 
770	 0,174389654839549 
771	 0,174498056457628 
772	 0,174045486580485 
773	 0,174133638695927 
774	 0,17478566699242 
775	 0,175252067342635 
776	 0,175460624985085 
777	 0,175391453178958 
778	 0,175336729286081 
779	 0,175443400734268 
780	 0,175851348450112 
781	 0,176551185236011 
782	 0,177224475747966 
783	 0,1767942966831 
784	 0,176513333370685 
785	 0,177133357152693 
786	 0,177431044681781 
787	 0,177552472118203 
788	 0,17806900547435 
789	 0,178584495257663 
790	 0,178861418701392 
791	 0,178398839708816 
792	 0,178187405595744 
793	 0,178936933101157 
794	 0,179193223536249 
795	 0,179131687337021 
796	 0,179704448769378 
797	 0,179965458766654 
798	 0,179753586948409 
799	 0,179849681196492 
800	 0,180129487463192 
801	 0,18044191956264 
802	 0,180905797467932 
803	 0,181292639917085 
804	 0,180923212741103 
805	 0,180971394092885 
806	 0,181670084646171 
807	 0,18165907842029 
808	 0,181464474074161 
809	 0,181727739690527 
810	 0,18183452299164 
811	 0,181748877960788 
812	 0,181657537101801 
813	 0,181834691061601 
814	 0,182381216251892 
815	 0,183085999233867 
816	 0,183541724179824 
817	 0,183336680114055 
818	 0,183731128001052 
819	 0,184543859861969 
820	 0,18430872918929 
821	 0,184136999384028 
822	 0,18447922738687 
823	 0,184575994195536 
824	 0,184630132051105 
825	 0,184982794469325 
826	 0,18505268823833 
827	 0,184961585260392 
828	 0,185578913248128 
829	 0,186017381547872 
830	 0,185867261334595 
831	 0,185732302637752 
832	 0,185724186875375 
833	 0,185894642935717 
834	 0,18643213227355 
835	 0,187022125222751 
836	 0,186490700774875 
837	 0,186208288031512 
838	 0,186771733146869 
839	 0,186625248475036 
840	 0,186330572259082 
841	 0,186901572265894 
842	 0,187028558254166 
843	 0,186737266602628 
844	 0,187307001386913 
845	 0,187555235212297 
846	 0,186996856937299 
847	 0,187109492532629 
848	 0,187524834579417 
849	 0,187495244026697 
850	 0,187501244837138 
851	 0,187553412200347 
852	 0,187271080293635 
853	 0,187193260452761 
854	 0,18758887365941 
855	 0,188133737207424 
856	 0,188500594635297 
857	 0,188320371736555 
858	 0,187968335297166 
859	 0,187716975926235 
860	 0,188081431450872 
861	 0,188366181560664 
862	 0,188213827867397 
863	 0,187911873642611 
864	 0,187666205102707 
865	 0,187700964984943 
866	 0,188442646644175 
867	 0,189385240354599 
868	 0,188629260551887 
869	 0,188495782684008 
870	 0,189736377873097 
871	 0,189589331331073 
872	 0,189009903295955 
873	 0,189422870664761 
874	 0,189986800200595 
875	 0,190406378754879 
876	 0,190281576202754 
877	 0,190592234979141 
878	 0,191532982721968 
879	 0,191653804687302 
880	 0,191429195879381 
881	 0,19148828997533 
882	 0,191499687850727 
883	 0,191596745244901 
884	 0,192252177692427 
885	 0,193003742776395 
886	 0,193550132239084 
887	 0,19345524184603 
888	 0,193119958030408 
889	 0,192977908220847 
890	 0,193165818021041 
891	 0,193662875900178 
892	 0,19440735128851 
893	 0,194610602446538 
894	 0,194270465225481 
895	 0,194782151356136 
896	 0,195016150739949 
897	 0,19423961990647 
898	 0,19462757024465 
899	 0,195411404072078 
900	 0,19460828960907 
901	 0,194472782987416 
902	 0,19523218535911 
903	 0,195218650963292 
904	 0,195042933950032 
905	 0,195114454606793 
906	 0,195479428797741 
907	 0,195812161668493 
908	 0,195653020182625 
909	 0,195464787976661 
910	 0,195455524448687 
911	 0,195950586748664 
912	 0,195973056118443 
913	 0,195349305648578 
914	 0,196143544342706 
915	 0,196897383486834 
916	 0,195918363017559 
917	 0,195724518801109 
918	 0,196024004596093 
919	 0,194577476116841 
920	 0,194284964045838 
921	 0,195714596316897 
922	 0,196486123760155 
923	 0,196471168035834 
924	 0,1958135158491 
925	 0,196220660244919 
926	 0,197119353422097 
927	 0,19700594827486 
928	 0,196021629717159 
929	 0,194732320608364 
930	 0,195105023688167 
931	 0,195232581295211 
932	 0,194254225384755 
933	 0,194575849432647 
934	 0,195369057171141 
935	 0,19526336198733 
936	 0,194809486589023 
937	 0,194049785234519 
938	 0,192587936587505 
939	 0,192351191740426 
940	 0,193563868011239 
941	 0,193163460417148 
942	 0,192520823470706 
943	 0,192838911275579 
944	 0,191755371639681 
945	 0,1902384651642 
946	 0,190751295844294 
947	 0,190892423811415 
948	 0,190174319555224 
949	 0,18961525699135 
950	 0,188465952819939 
951	 0,186623609969422 
952	 0,186100259792373 
953	 0,186529797328298 
954	 0,187097389600483 
955	 0,185749314049955 
956	 0,183286330603246 
957	 0,182946711893014 
958	 0,182508854107163 
959	 0,181751955241718 
960	 0,183240593485286 
961	 0,184008543279203 
962	 0,182042974378846 
963	 0,180754968511056 
964	 0,180287952967235 
965	 0,180065483810108 
966	 0,181256388378037 
967	 0,182879004083771 
968	 0,181187747979355 
969	 0,179763429439473 
970	 0,179967885204186 
971	 0,179915709422505 
972	 0,180063261531163 
973	 0,180806663452188 
974	 0,180837753066684 
975	 0,1806727017498 
976	 0,181647109767801 
977	 0,181707430460988 
978	 0,180960650750357 
979	 0,1818457918329 
980	 0,182421892087376 
981	 0,181841263720351 
982	 0,181175702524166 
983	 0,180799525192155 
984	 0,181078755602526 
985	 0,183179051380101 
986	 0,185087921904955 
987	 0,182580719925059 
988	 0,18167215947747 
989	 0,183015881876754 
990	 0,181837593499834 
991	 0,182100353106664 
992	 0,185241605056503 
993	 0,186928651444256 
994	 0,187212161266184 
995	 0,186584886413687 
996	 0,185102713925267 
997	 0,183900321894417 
998	 0,185040723092733 
999	 0,185246548884119 
1000	 0,184663775720022 
1001	 0,187550974476096 
1002	 0,189398196717222 
1003	 0,188302372624954 
1004	 0,187371133145397 
1005	 0,187970885272463 
1006	 0,190811821880833 
1007	 0,191506046034392 
1008	 0,190702068613618 
1009	 0,190931082421182 
1010	 0,19273244385447 
1011	 0,194685711274077 
1012	 0,19128494563524 
1013	 0,190455063244966 
1014	 0,194328070937669 
1015	 0,194062754471754 
1016	 0,193322579119089 
1017	 0,194998086018053 
1018	 0,192487420754155 
1019	 0,189719525506069 
1020	 0,193612290612115 
1021	 0,196651865935207 
1022	 0,197483137976535 
1023	 0,197668835549117 
1024	 0,197671486727611 
1025	 0,198414062121754 
1026	 0,203026120600098 
1027	 0,204523243113025 
1028	 0,199417735773313 
1029	 0,197452827092367 
1030	 0,19608261190732 
1031	 0,191809479631508 
1032	 0,196280940138924 
1033	 0,203911714640443 
1034	 0,199299095398293 
1035	 0,199994808750612 
1036	 0,206589469012885 
1037	 0,202751198313666 
1038	 0,200776959947745 
1039	 0,204754980193868 
1040	 0,205049877947055 
1041	 0,20478044302 
1042	 0,206672378964387 
1043	 0,207769301120136 
1044	 0,209360504113049 
1045	 0,213398723498993 
1046	 0,213786351319431 
1047	 0,210221800419984 
1048	 0,204755580424001 
1049	 0,206041602064304 
1050	 0,212728982302522 
1051	 0,207192644845854 
1052	 0,207343478687307 
1053	 0,217985188743259 
1054	 0,213415741942555 
1055	 0,205371991050574 
1056	 0,205104702467926 
1057	 0,206733857703716 
1058	 0,206140946996125 
1059	 0,199127648680952 
1060	 0,192499734802977 
1061	 0,190732695790714 
1062	 0,200476847986642 
1063	 0,20984146775748 
1064	 0,214925275597777 
1065	 0,217529374660395 
1066	 0,210104108744593 
1067	 0,194461416406188 
1068	 0,198687522300125 
1069	 0,202761580284908 
1070	 0,194748249207602 
1071	 0,211536719842472 
1072	 0,228070507933635 
1073	 0,21298398165048 
1074	 0,205238012128016 
1075	 0,208596269285786 
