Wavelength	SCO-GRA00213.asd
325	 0,33078875834026 
326	 0,309404560103082 
327	 0,165860087657093 
328	-2,72059202912972E-02 
329	 0,071688689422521 
330	 0,209843655703078 
331	 0,274297397152227 
332	 0,284917096399402 
333	 0,253366370004646 
334	 0,191014703046221 
335	 9,63170105076434E-02 
336	 2,25312865688605E-02 
337	 0,169310340677159 
338	 0,270610620378817 
339	 0,111005021991631 
340	 5,72999183830237E-02 
341	 0,10100501333716 
342	 0,113719385476447 
343	 8,30281084550762E-02 
344	 2,28143510201178E-02 
345	 5,05913028703621E-02 
346	 7,49475316535344E-02 
347	 1,41565998078492E-02 
348	 0,037297600566276 
349	 0,111378228115372 
350	 6,04073933900655E-02 
351	 1,35239254018408E-02 
352	 1,43987608281924E-02 
353	 5,62714356076981E-02 
354	 8,18436299340812E-02 
355	 0,029973895038751 
356	 5,20635149885707E-03 
357	 2,18869455724697E-02 
358	 4,56940788336453E-02 
359	 0,063648573672131 
360	 6,51287811826273E-02 
361	 3,24131359330022E-02 
362	 6,88498484124976E-03 
363	 4,21996201665254E-02 
364	 6,03779125314828E-02 
365	 4,89889935741005E-02 
366	 3,83833483731323E-02 
367	 3,25828414145436E-02 
368	 3,46751633980377E-02 
369	 4,66215490912192E-02 
370	 5,62149032794891E-02 
371	 4,32717423399278E-02 
372	 3,81625445010072E-02 
373	 4,85441186835684E-02 
374	 6,79941611833736E-02 
375	 7,07306915965449E-02 
376	 4,18495653466664E-02 
377	 3,54489912909651E-02 
378	 4,62605438316828E-02 
379	 3,79658075240356E-02 
380	 4,99683412866199E-02 
381	 8,00947807445435E-02 
382	 0,062624879530263 
383	 3,43621123923604E-02 
384	 3,36968664375479E-02 
385	 4,08076212652427E-02 
386	 4,85454247690619E-02 
387	 0,04964806439634 
388	 5,43487055149228E-02 
389	 6,31301818761826E-02 
390	 6,01354066479832E-02 
391	 4,87785563440626E-02 
392	 3,48913971670166E-02 
393	 0,035046903406626 
394	 4,76702282706055E-02 
395	 5,72724144717481E-02 
396	 6,11009559274036E-02 
397	 5,73238393312664E-02 
398	 4,22918680720405E-02 
399	 3,07368254406924E-02 
400	 4,42127672151135E-02 
401	 5,01141537654741E-02 
402	 4,51006617140532E-02 
403	 5,16893878114704E-02 
404	 5,29307916706672E-02 
405	 3,88883103164832E-02 
406	 0,032793011150805 
407	 3,34093809883181E-02 
408	 0,02938759485728 
409	 0,033128766478267 
410	 4,30438393340056E-02 
411	 3,72615559874139E-02 
412	 2,86649359784492E-02 
413	 3,00426173925303E-02 
414	 3,46901928600739E-02 
415	 3,83240755105481E-02 
416	 0,032788179446229 
417	 3,23885087756879E-02 
418	 4,03870320674668E-02 
419	 3,77150118056089E-02 
420	 3,19981908188734E-02 
421	 0,034554313598132 
422	 3,59192188844734E-02 
423	 3,44370135339191E-02 
424	 3,16651534089347E-02 
425	 2,96598157790936E-02 
426	 3,01209113322822E-02 
427	 3,58339732406279E-02 
428	 4,09873617793508E-02 
429	 3,44970131027427E-02 
430	 3,10739392147276E-02 
431	 3,34291428869596E-02 
432	 0,032389185192535 
433	 3,09347213875695E-02 
434	 3,18035033582087E-02 
435	 3,07793734227118E-02 
436	 2,90433391902226E-02 
437	 3,18154516580065E-02 
438	 3,25998970520081E-02 
439	 2,97285302329638E-02 
440	 2,98799436084919E-02 
441	 3,22163411979075E-02 
442	 3,49346116564275E-02 
443	 3,27059970567363E-02 
444	 0,027565538492632 
445	 3,08248613357323E-02 
446	 3,40129277600843E-02 
447	 3,22666144719577E-02 
448	 3,21613338592327E-02 
449	 3,35857962161657E-02 
450	 3,50044628886529E-02 
451	 0,033282262301092 
452	 2,92381600330442E-02 
453	 3,12552167517758E-02 
454	 3,51783397610583E-02 
455	 3,68354139367028E-02 
456	 3,74143503585896E-02 
457	 3,70024427186143E-02 
458	 3,51919239662899E-02 
459	 3,47399963522264E-02 
460	 3,59887629187894E-02 
461	 3,23981215550021E-02 
462	 2,87278680749709E-02 
463	 3,19544437200578E-02 
464	 3,58237633720911E-02 
465	 3,74887535292945E-02 
466	 3,29258785547969E-02 
467	 2,99092119297839E-02 
468	 3,30317840291254E-02 
469	 3,37877031091866E-02 
470	 3,22163103506978E-02 
471	 3,06736528634759E-02 
472	 0,03134038799249 
473	 3,40106047652428E-02 
474	 3,38480153607546E-02 
475	 3,19899321368511E-02 
476	 2,99290331702337E-02 
477	 2,93441792634557E-02 
478	 3,06815726514341E-02 
479	 3,44013146029516E-02 
480	 3,59963243939976E-02 
481	 0,033777084323212 
482	 3,26698433600637E-02 
483	 3,25396479410304E-02 
484	 3,23046777169101E-02 
485	 3,21975353857554E-02 
486	 3,23200062211427E-02 
487	 3,30996461398807E-02 
488	 3,34165229337873E-02 
489	 0,032564645627658 
490	 3,24698157839362E-02 
491	 3,30678018186442E-02 
492	 3,38410095051373E-02 
493	 3,25344887637754E-02 
494	 2,91528505558411E-02 
495	 2,81957235751993E-02 
496	 2,90748274783236E-02 
497	 3,06667558855361E-02 
498	 3,24811025723847E-02 
499	 3,34120123535494E-02 
500	 3,04917316186612E-02 
501	 2,90760946180273E-02 
502	 3,17368607540512E-02 
503	 3,25464488712064E-02 
504	 3,18137794111358E-02 
505	 3,15290381327325E-02 
506	 0,030419854195564 
507	 2,90919391355173E-02 
508	 3,14357547318952E-02 
509	 3,35781673408683E-02 
510	 3,21101593070675E-02 
511	 3,17777104438637E-02 
512	 0,032617278580524 
513	 3,23801996887375E-02 
514	 3,16548988188471E-02 
515	 3,09772243502967E-02 
516	 3,21520781157054E-02 
517	 3,39233160665512E-02 
518	 3,44034481150642E-02 
519	 3,37592650795534E-02 
520	 3,25317299964784E-02 
521	 3,23706247252789E-02 
522	 0,03304880557713 
523	 3,41640205647642E-02 
524	 3,35378049669432E-02 
525	 3,19324463163512E-02 
526	 3,18236361640266E-02 
527	 3,17446736532364E-02 
528	 3,14586851075154E-02 
529	 3,24026236932446E-02 
530	 3,30152248756277E-02 
531	 3,14806631207689E-02 
532	 3,10359014426173E-02 
533	 3,18500217682799E-02 
534	 3,19866474660685E-02 
535	 0,031916840841114 
536	 3,19115375693397E-02 
537	 3,20040895503679E-02 
538	 3,20699206123896E-02 
539	 3,18960786808367E-02 
540	 3,13620111530809E-02 
541	 3,06529379080287E-02 
542	 0,03062033432337 
543	 3,11739699576689E-02 
544	 3,21233001494813E-02 
545	 3,25430065253516E-02 
546	 3,23023570060757E-02 
547	 3,15280501776803E-02 
548	 3,13384917448086E-02 
549	 3,21998320555212E-02 
550	 3,30707725832428E-02 
551	 3,32972604723126E-02 
552	 3,20450039582484E-02 
553	 3,15764811750181E-02 
554	 3,21404818551983E-02 
555	 0,031735542739497 
556	 3,13667843346242E-02 
557	 3,18413911114023E-02 
558	 3,20068264710561E-02 
559	 3,17307889029829E-02 
560	 0,031155655370582 
561	 3,08552790866322E-02 
562	 3,09997635568032E-02 
563	 3,08328860794951E-02 
564	 3,06821457975844E-02 
565	 3,10676821597377E-02 
566	 3,11910482264152E-02 
567	 3,09129861433107E-02 
568	 3,04468603575528E-02 
569	 3,03162298121108E-02 
570	 3,08693789934837E-02 
571	 3,16619426528283E-02 
572	 3,23239544386513E-02 
573	 3,22873862002943E-02 
574	 3,19671933723302E-02 
575	 3,17366692909464E-02 
576	 0,032515836697671 
577	 3,37512638740525E-02 
578	 3,47358910540966E-02 
579	 3,54655881484537E-02 
580	 3,58695035173203E-02 
581	 3,58387582869942E-02 
582	 3,57368621367505E-02 
583	 3,57706264928747E-02 
584	 0,035497114248395 
585	 3,55764459146294E-02 
586	 3,73050146130053E-02 
587	 3,85653654593226E-02 
588	 3,86773936056873E-02 
589	 3,78241838077632E-02 
590	 3,74919652401099E-02 
591	 3,89463830457126E-02 
592	 3,96736528938565E-02 
593	 3,95835387853245E-02 
594	 3,99757593616246E-02 
595	 3,99608321659978E-02 
596	 3,93720565074727E-02 
597	 3,98669708969219E-02 
598	 4,05958454978311E-02 
599	 4,00365879226394E-02 
600	 3,97868382344498E-02 
601	 3,99984693694864E-02 
602	 0,039479704941889 
603	 3,87938405108868E-02 
604	 3,83893423502768E-02 
605	 3,77649906540111E-02 
606	 3,72138811277361E-02 
607	 3,76816641947235E-02 
608	 3,80029124483757E-02 
609	 3,77617044545174E-02 
610	 3,73639581728173E-02 
611	 3,73164969623415E-02 
612	 3,81800424460136E-02 
613	 3,79069166746004E-02 
614	 3,67301122540262E-02 
615	 3,73806137676879E-02 
616	 3,73959736301829E-02 
617	 0,03549768640764 
618	 0,035182916825196 
619	 3,59497702532791E-02 
620	 3,58085912544729E-02 
621	 3,55881158001658E-02 
622	 0,035498090954304 
623	 3,54175204458226E-02 
624	 3,54497929051573E-02 
625	 3,56875973152634E-02 
626	 0,035743881268696 
627	 3,55661489018306E-02 
628	 3,51730007337032E-02 
629	 3,52143543468076E-02 
630	 3,59693651985901E-02 
631	 0,036640061350673 
632	 3,73570794564919E-02 
633	 3,85793452638913E-02 
634	 3,85984761004937E-02 
635	 3,74678420647726E-02 
636	 3,75333980484475E-02 
637	 3,81076202373287E-02 
638	 3,85607253528705E-02 
639	 3,93496547174322E-02 
640	 0,040368680281628 
641	 4,14050164070696E-02 
642	 0,041475338038179 
643	 4,05239131145666E-02 
644	 4,09387995897511E-02 
645	 0,041887193830754 
646	 4,20049501582801E-02 
647	 4,17465705918206E-02 
648	 4,13211179161134E-02 
649	 4,11196064661119E-02 
650	 4,08794365297939E-02 
651	 4,04600870062547E-02 
652	 4,02912602169694E-02 
653	 4,02003313387467E-02 
654	 3,97298871403864E-02 
655	 0,039100308067988 
656	 3,84365236616204E-02 
657	 3,79981345108692E-02 
658	 0,03749730594791 
659	 3,66324420095232E-02 
660	 3,57245758824669E-02 
661	 0,034967128526729 
662	 3,46692935168765E-02 
663	 0,034466762949491 
664	 3,41628275762908E-02 
665	 3,38533136963206E-02 
666	 3,35577522183234E-02 
667	 3,33120880920184E-02 
668	 3,27409164768454E-02 
669	 3,19982764450422E-02 
670	 3,21255787923563E-02 
671	 3,22374079809699E-02 
672	 0,031686303408349 
673	 0,031864526603255 
674	 3,24697857288997E-02 
675	 0,032217781159717 
676	 3,19485748764692E-02 
677	 3,18884567770548E-02 
678	 3,14665614716914E-02 
679	 3,13150608643508E-02 
680	 3,21998882157007E-02 
681	 3,21224010195272E-02 
682	 3,13579787598901E-02 
683	 3,23635709823853E-02 
684	 3,34951076082902E-02 
685	 3,38722283483995E-02 
686	 3,48138321686772E-02 
687	 3,59785804884084E-02 
688	 3,64400982748932E-02 
689	 3,72542739130481E-02 
690	 3,87646170830134E-02 
691	 4,08218051698361E-02 
692	 4,32833822185217E-02 
693	 4,60211002949747E-02 
694	 4,90067482003365E-02 
695	 5,25750268465051E-02 
696	 5,74611317827457E-02 
697	 6,33567797836664E-02 
698	 7,01187376953714E-02 
699	 7,76820066392285E-02 
700	 8,59586056352759E-02 
701	 0,094833575450009 
702	 0,104592935314677 
703	 0,115140635065515 
704	 0,126004482720995 
705	 0,137251592206991 
706	 0,148879348484184 
707	 0,160451630510255 
708	 0,172056240675039 
709	 0,184046711056405 
710	 0,195878622199928 
711	 0,207321666964465 
712	 0,218427518396782 
713	 0,229151769731053 
714	 0,239436850327567 
715	 0,249655651749156 
716	 0,259626986352083 
717	 0,268764589026204 
718	 0,277259947819936 
719	 0,285245723205978 
720	 0,293084905118776 
721	 0,300501175925026 
722	 0,307104578328231 
723	 0,31328666627158 
724	 0,319083559564062 
725	 0,324186149397743 
726	 0,329129458171259 
727	 0,334150478013382 
728	 0,338270258356632 
729	 0,341668144325238 
730	 0,34487267923553 
731	 0,348014868026119 
732	 0,351108673768692 
733	 0,353885789802113 
734	 0,356302865336405 
735	 0,358352011151251 
736	 0,360329291594573 
737	 0,362206828305047 
738	 0,36374043972872 
739	 0,365197113721909 
740	 0,366646210034894 
741	 0,367804942151204 
742	 0,368943678796124 
743	 0,370386251381633 
744	 0,371696564299537 
745	 0,372761369554626 
746	 0,373595019532824 
747	 0,37427391714367 
748	 0,374851224432679 
749	 0,375269236887075 
750	 0,375828745116857 
751	 0,377007249094274 
752	 0,377596472415606 
753	 0,377555552815076 
754	 0,378117427641652 
755	 0,378741236123284 
756	 0,379044261261283 
757	 0,379367562204353 
758	 0,379823629894304 
759	 0,38059694701098 
760	 0,380862475104111 
761	 0,380590679466232 
762	 0,381038074445849 
763	 0,381672887514826 
764	 0,381937751137291 
765	 0,382133336912419 
766	 0,382232849371126 
767	 0,381962210667952 
768	 0,382043156247851 
769	 0,382644210688748 
770	 0,382880816013614 
771	 0,382840361740383 
772	 0,382728184320264 
773	 0,38289721650251 
774	 0,383298004121376 
775	 0,383513211439219 
776	 0,383582865416809 
777	 0,383542794196886 
778	 0,383586304236668 
779	 0,38357919307753 
780	 0,383282783388454 
781	 0,383331772080836 
782	 0,383771746523424 
783	 0,384151135783169 
784	 0,384309490153841 
785	 0,384176053244414 
786	 0,384163882776594 
787	 0,384241503934862 
788	 0,384226479123544 
789	 0,384321070751684 
790	 0,384499239071203 
791	 0,384396587392079 
792	 0,384347895592585 
793	 0,384573666279732 
794	 0,38435828520418 
795	 0,383887193128503 
796	 0,383794169756273 
797	 0,383776650966907 
798	 0,383759990790022 
799	 0,383837639991427 
800	 0,383892698692741 
801	 0,383824737192234 
802	 0,383811382522702 
803	 0,383919275358413 
804	 0,3842412379653 
805	 0,384519195542909 
806	 0,384629108391624 
807	 0,38454111368053 
808	 0,384477488951485 
809	 0,384657460289095 
810	 0,384548250552669 
811	 0,384315425655786 
812	 0,384778723951044 
813	 0,384963224446264 
814	 0,384606395539306 
815	 0,384810807475293 
816	 0,385255455504841 
817	 0,38544561522076 
818	 0,385353539836799 
819	 0,385122199018776 
820	 0,385168553687397 
821	 0,385485869278028 
822	 0,385984305630528 
823	 0,386077020696682 
824	 0,386073157590586 
825	 0,386441766165156 
826	 0,386831966964389 
827	 0,387058775986016 
828	 0,386766641707858 
829	 0,386736852646646 
830	 0,38729536501801 
831	 0,387656687206477 
832	 0,387643669414699 
833	 0,387155511400582 
834	 0,38715945746376 
835	 0,387615090608676 
836	 0,387485223723888 
837	 0,387409343670246 
838	 0,387692438152737 
839	 0,387937561793088 
840	 0,38804587953967 
841	 0,387948993438121 
842	 0,387844169727631 
843	 0,387833349939199 
844	 0,388060765720692 
845	 0,388169176007778 
846	 0,388024023960037 
847	 0,3882198386322 
848	 0,388483735573957 
849	 0,388348012972301 
850	 0,38830148638373 
851	 0,388320389367513 
852	 0,387888121524271 
853	 0,387513333657218 
854	 0,387550433025699 
855	 0,388350166841168 
856	 0,389128407473068 
857	 0,388804125656268 
858	 0,388008537684247 
859	 0,387218390333322 
860	 0,387301142037256 
861	 0,387776545341261 
862	 0,388245445043842 
863	 0,387936725553945 
864	 0,387419229229096 
865	 0,387539301633384 
866	 0,388154466066983 
867	 0,388844535286167 
868	 0,388376147107835 
869	 0,38835260117429 
870	 0,389290958655223 
871	 0,389309958971213 
872	 0,388872410240292 
873	 0,388742098762219 
874	 0,388580909575194 
875	 0,388585827351757 
876	 0,389537759106519 
877	 0,390096916172497 
878	 0,389827302714776 
879	 0,389883833541161 
880	 0,390212525337337 
881	 0,39061761141979 
882	 0,390402374018061 
883	 0,389758792177612 
884	 0,38951295106184 
885	 0,389637912568551 
886	 0,390042914411831 
887	 0,390127057286498 
888	 0,390277614735699 
889	 0,390837713208378 
890	 0,391053265982907 
891	 0,390853010508481 
892	 0,390363998976412 
893	 0,390112665011305 
894	 0,390219945398779 
895	 0,390215208119828 
896	 0,390321505811999 
897	 0,390673586784015 
898	 0,39075621703098 
899	 0,390676342556532 
900	 0,390776897192717 
901	 0,390793996226362 
902	 0,390677966683031 
903	 0,390495513135256 
904	 0,390419741995535 
905	 0,39053780327183 
906	 0,390646286426178 
907	 0,390635096571258 
908	 0,390397162445733 
909	 0,39028547973461 
910	 0,390243405399782 
911	 0,389757694840967 
912	 0,389464733058863 
913	 0,389537645012659 
914	 0,389050568774404 
915	 0,388505655839072 
916	 0,388514169608711 
917	 0,388469314423471 
918	 0,388111270341676 
919	 0,386952165562006 
920	 0,386823551703673 
921	 0,387912003798073 
922	 0,387823194251938 
923	 0,386929900046788 
924	 0,385794749106941 
925	 0,385858003424845 
926	 0,386519083502203 
927	 0,38629104031796 
928	 0,385252210426471 
929	 0,383843203318138 
930	 0,383640502255607 
931	 0,383541066070244 
932	 0,382894645603008 
933	 0,382084531641359 
934	 0,38134884258918 
935	 0,380925064855889 
936	 0,380644974446575 
937	 0,380054014406928 
938	 0,377902101420845 
939	 0,376410607570914 
940	 0,376278739809919 
941	 0,376302096518716 
942	 0,37555441549206 
943	 0,373481444181127 
944	 0,372485423494737 
945	 0,372247724875483 
946	 0,371442614426436 
947	 0,369987892801477 
948	 0,368008121211021 
949	 0,366246711624872 
950	 0,364375549615694 
951	 0,362361042533762 
952	 0,361104851522979 
953	 0,360484953647192 
954	 0,360124626296682 
955	 0,357553198010088 
956	 0,35395997840481 
957	 0,353740874168921 
958	 0,353562962967348 
959	 0,35253766645606 
960	 0,352185299146885 
961	 0,351527426576063 
962	 0,349901535830144 
963	 0,348425752190414 
964	 0,347462139233195 
965	 0,347269740635311 
966	 0,347781827500783 
967	 0,34829231887514 
968	 0,346664934858444 
969	 0,346236087506353 
970	 0,347743755341559 
971	 0,346710971117755 
972	 0,345702188701784 
973	 0,346928901677642 
974	 0,345238258653405 
975	 0,342547921761748 
976	 0,343720182644755 
977	 0,345235794130241 
978	 0,345917104230288 
979	 0,345035586129349 
980	 0,345374343497858 
981	 0,347504198226936 
982	 0,345703411819038 
983	 0,344160867112635 
984	 0,347112650596695 
985	 0,347543831637336 
986	 0,346122628578921 
987	 0,346646646227636 
988	 0,346893294588667 
989	 0,346425147917203 
990	 0,345673668506122 
991	 0,345883724359938 
992	 0,34734118011071 
993	 0,347353817648683 
994	 0,347510414522211 
995	 0,349494514910177 
996	 0,350821152809152 
997	 0,350847425570121 
998	 0,349226040014915 
999	 0,348036084536562 
1000	 0,348268530168733 
1001	 0,350808950292449 
1002	 0,352755352985786 
1003	 0,35277503600836 
1004	 0,352708368807951 
1005	 0,353510883444765 
1006	 0,355797391376342 
1007	 0,357699096279547 
1008	 0,358379993856119 
1009	 0,357075338822244 
1010	 0,356141225519876 
1011	 0,356246465465548 
1012	 0,356908730549248 
1013	 0,358439519178631 
1014	 0,360300558128654 
1015	 0,359534607567225 
1016	 0,358587631187447 
1017	 0,359642394082709 
1018	 0,361680357316636 
1019	 0,363495039360574 
1020	 0,363572885595169 
1021	 0,361428999641282 
1022	 0,359415264724124 
1023	 0,364275875506106 
1024	 0,367622056206218 
1025	 0,367307266938265 
1026	 0,368027800070849 
1027	 0,368602931179069 
1028	 0,368468641047641 
1029	 0,369938079735106 
1030	 0,369370961087838 
1031	 0,363090991818198 
1032	 0,363186644020136 
1033	 0,36850168433892 
1034	 0,371937886946766 
1035	 0,371582935757922 
1036	 0,368493682414427 
1037	 0,369705349298527 
1038	 0,368517454811192 
1039	 0,364338101085189 
1040	 0,369974779135277 
1041	 0,376483101259399 
1042	 0,376092411145955 
1043	 0,374066328659506 
1044	 0,374166251329023 
1045	 0,379936253498502 
1046	 0,379149566847251 
1047	 0,37343791329841 
1048	 0,372780735508359 
1049	 0,375050693050873 
1050	 0,378420166864668 
1051	 0,378293120905801 
1052	 0,376350945759105 
1053	 0,374401771275409 
1054	 0,37688700009352 
1055	 0,376668586829974 
1056	 0,369568723874937 
1057	 0,378169180962253 
1058	 0,385825261485582 
1059	 0,366982524860735 
1060	 0,361304247769085 
1061	 0,370722700964701 
1062	 0,379313885532587 
1063	 0,382302059050176 
1064	 0,379032714071917 
1065	 0,374592927686234 
1066	 0,371745065820302 
1067	 0,371940487657277 
1068	 0,373766792103954 
1069	 0,374433706872457 
1070	 0,372189592394802 
1071	 0,36963982813817 
1072	 0,367681542104009 
1073	 0,367066093877066 
1074	 0,370574754687454 
1075	 0,374884681343065 
