Wavelength	SCO-GRA00337.asd
325	 0,22985644643138 
326	 0,265193704101565 
327	 0,273158734057237 
328	 0,205231113961185 
329	 0,20100905346851 
330	 0,20544941913096 
331	 0,184955788949313 
332	 0,194510104681177 
333	 0,2086229355876 
334	 0,154059638714654 
335	 0,143727849469853 
336	 0,203410054544585 
337	 0,254747006845181 
338	 0,238174421469869 
339	 0,126979766511542 
340	 0,110754801704637 
341	 0,163125959923661 
342	 0,16097811579499 
343	 0,165882269354116 
344	 0,185675068333956 
345	 0,171011673575547 
346	 0,130442195511064 
347	 0,070642400926725 
348	 0,105058678742932 
349	 0,189099713693922 
350	 0,146391687397535 
351	 0,102559777682616 
352	 9,96406212859871E-02 
353	 0,122403439035889 
354	 0,143419331723473 
355	 0,134748628165054 
356	 0,117375521121206 
357	 0,103090592323274 
358	 0,103095042893761 
359	 0,103728250356999 
360	 0,09716174761766 
361	 7,53982794002133E-02 
362	 6,47070739151099E-02 
363	 9,89059276157878E-02 
364	 0,119389095745542 
365	 0,116725502739102 
366	 0,114641809544757 
367	 0,119999050180769 
368	 0,135078885094671 
369	 0,1391073503873 
370	 0,132517673972084 
371	 0,121383847790371 
372	 0,104832931308076 
373	 9,09092584257861E-02 
374	 0,107498649364372 
375	 0,123285500249135 
376	 0,11703428975324 
377	 0,117138585380045 
378	 0,122029767019746 
379	 0,120238940367271 
380	 0,102285279551722 
381	 7,66178555304028E-02 
382	 0,095766365857384 
383	 0,114804481017593 
384	 9,07143215709545E-02 
385	 8,73031605080413E-02 
386	 0,105239521518752 
387	 0,119946480289819 
388	 0,13088477803424 
389	 0,133558214895641 
390	 0,117759852596066 
391	 0,101866312347306 
392	 0,109053208958452 
393	 0,11520916789151 
394	 0,116758188662581 
395	 0,121728150520505 
396	 0,123081164383735 
397	 0,117730367724972 
398	 0,108737916566779 
399	 0,101340493736554 
400	 0,101990474413385 
401	 0,105663012451839 
402	 0,109787315787462 
403	 0,111761398386174 
404	 0,109840979737563 
405	 0,103262466478961 
406	 9,55216171015131E-02 
407	 9,13215250800761E-02 
408	 9,82222281876492E-02 
409	 0,104317517434712 
410	 0,104626570012888 
411	 9,60800413020085E-02 
412	 8,86080524766011E-02 
413	 9,12935717373903E-02 
414	 9,58390141236581E-02 
415	 9,94674399863102E-02 
416	 0,100404390978948 
417	 9,85332692640214E-02 
418	 9,50135141893253E-02 
419	 9,68782048054526E-02 
420	 9,93140967559078E-02 
421	 9,56583447754199E-02 
422	 9,72473959933098E-02 
423	 0,102006576907806 
424	 9,39488269082958E-02 
425	 8,92058791811122E-02 
426	 9,64986019293908E-02 
427	 0,100112405365077 
428	 9,95720312755139E-02 
429	 9,75819333971418E-02 
430	 9,77757013539385E-02 
431	 9,97531623191611E-02 
432	 9,56722563809865E-02 
433	 9,20328882820065E-02 
434	 9,44979186315365E-02 
435	 9,64243257976063E-02 
436	 9,67493799209166E-02 
437	 9,59894586405669E-02 
438	 9,56915170217005E-02 
439	 9,62730338129613E-02 
440	 9,56908890667081E-02 
441	 9,48731987116698E-02 
442	 9,51958342017594E-02 
443	 9,42263047387382E-02 
444	 9,26000864385154E-02 
445	 0,094545271295701 
446	 9,53854487381041E-02 
447	 9,28932433772817E-02 
448	 0,094846228150219 
449	 9,84109788715978E-02 
450	 9,63782309695182E-02 
451	 9,53298487539154E-02 
452	 9,66251720058174E-02 
453	 9,64900709402499E-02 
454	 9,63565697865643E-02 
455	 9,76608741056864E-02 
456	 0,100008327171858 
457	 0,102409012921224 
458	 0,102957601547678 
459	 0,101197755273377 
460	 9,75255899027837E-02 
461	 9,53886768260331E-02 
462	 9,56097333637328E-02 
463	 9,86706436549987E-02 
464	 9,99640461419046E-02 
465	 9,89014189972254E-02 
466	 9,80159582029905E-02 
467	 9,82225891789777E-02 
468	 9,98016854098555E-02 
469	 9,93003171209189E-02 
470	 9,74306444774109E-02 
471	 9,63271705902923E-02 
472	 0,097693406819825 
473	 0,100919494158252 
474	 0,100469471566975 
475	 9,78039999777576E-02 
476	 9,48253624055981E-02 
477	 9,43535772181743E-02 
478	 9,65485207864062E-02 
479	 0,100395527889942 
480	 0,102031462562252 
481	 0,100041135384475 
482	 0,099086353457142 
483	 9,94966831553591E-02 
484	 0,100989574698493 
485	 0,100269197904327 
486	 9,77169300931778E-02 
487	 9,85846189752733E-02 
488	 9,93994418309205E-02 
489	 9,76280090266258E-02 
490	 9,62357434017528E-02 
491	 9,54066118816993E-02 
492	 9,42716095858857E-02 
493	 9,39481573488903E-02 
494	 9,46572504852581E-02 
495	 9,53506945667118E-02 
496	 9,60436430572528E-02 
497	 9,68562713107028E-02 
498	 9,78246036053382E-02 
499	 9,82153911733232E-02 
500	 9,53555552523805E-02 
501	 9,45563947420143E-02 
502	 9,81146043618761E-02 
503	 9,81527366657083E-02 
504	 9,64485869696644E-02 
505	 9,79336153078165E-02 
506	 9,92768150419774E-02 
507	 9,95853531656025E-02 
508	 9,92940781247754E-02 
509	 0,09936055076543 
510	 0,100533944316749 
511	 0,100764730586404 
512	 0,100431731291561 
513	 0,10182078347653 
514	 0,101821104951929 
515	 9,98342236863319E-02 
516	 0,101393726505916 
517	 0,103660604042842 
518	 0,102000990719562 
519	 0,101291190183563 
520	 0,102215486880642 
521	 0,102479346491526 
522	 0,102334604678 
523	 0,10204366376742 
524	 0,102298898212484 
525	 0,102649055231018 
526	 0,101815859840758 
527	 0,100783481637067 
528	 0,100242296665022 
529	 0,101818870937502 
530	 0,103405665436795 
531	 0,102543128514338 
532	 0,101991264857682 
533	 0,102044728787193 
534	 0,101449764330904 
535	 0,101103076303447 
536	 0,101419470993397 
537	 0,101154210922879 
538	 0,100683021901688 
539	 0,101018219048703 
540	 0,101294854317131 
541	 0,101198031997628 
542	 0,10045249032389 
543	 0,100323422890937 
544	 0,101935360626183 
545	 0,102690568637782 
546	 0,102321300869321 
547	 0,101632834253913 
548	 0,101210895166717 
549	 0,101382729542766 
550	 0,101818840181215 
551	 0,102229532526145 
552	 0,102261357178629 
553	 0,10203946577082 
554	 0,101681955756699 
555	 0,101499901526386 
556	 0,101290588408172 
557	 0,100894937464217 
558	 0,100591592453099 
559	 0,100353527995812 
560	 9,99448357738951E-02 
561	 9,97298464619703E-02 
562	 9,97662711338544E-02 
563	 9,94346501034659E-02 
564	 9,90340616651836E-02 
565	 9,90328440124337E-02 
566	 9,86059807275127E-02 
567	 9,81098101313623E-02 
568	 9,96172910853218E-02 
569	 0,100790124768265 
570	 0,100150925967244 
571	 0,100452524801073 
572	 0,101461659094796 
573	 0,101732589293605 
574	 0,101925102655552 
575	 0,102373868936189 
576	 0,103611230997363 
577	 0,105166888499175 
578	 0,10646806079904 
579	 0,10773975452572 
580	 0,108918985368549 
581	 0,109701951982435 
582	 0,11054242163602 
583	 0,111598290743743 
584	 0,111780419848677 
585	 0,111960022568328 
586	 0,113979780609505 
587	 0,115050704276437 
588	 0,114776399022244 
589	 0,115468216293524 
590	 0,116521139228957 
591	 0,117275642228466 
592	 0,117987444241923 
593	 0,118556444255967 
594	 0,118607941060447 
595	 0,118689940875431 
596	 0,119033397396033 
597	 0,119375752283984 
598	 0,119232364024846 
599	 0,117887758521802 
600	 0,117712618917624 
601	 0,118775769863951 
602	 0,118591241962833 
603	 0,117790356221726 
604	 0,116932299728371 
605	 0,116029919324315 
606	 0,115172935012899 
607	 0,114401984594716 
608	 0,114193185919963 
609	 0,114481410551206 
610	 0,113689238432362 
611	 0,112968425979299 
612	 0,113874651628812 
613	 0,113561045384739 
614	 0,112178541379635 
615	 0,11282281328667 
616	 0,112899678308669 
617	 0,111034230565509 
618	 0,110740327361263 
619	 0,111308210822549 
620	 0,110227365280093 
621	 0,109967008989524 
622	 0,110872416415547 
623	 0,110558365361589 
624	 0,11010973440828 
625	 0,110727820641839 
626	 0,11090258294211 
627	 0,110574684055796 
628	 0,110481544794158 
629	 0,110611156758615 
630	 0,110974810103137 
631	 0,111405762428534 
632	 0,112173408869382 
633	 0,113813946869684 
634	 0,114465880721425 
635	 0,113995837024192 
636	 0,11430009261178 
637	 0,115021003102988 
638	 0,115807266559347 
639	 0,116733692151026 
640	 0,117829809040864 
641	 0,119364584505483 
642	 0,120042155748799 
643	 0,119658153147058 
644	 0,120618916785188 
645	 0,121803210761208 
646	 0,121488599231326 
647	 0,121284138313215 
648	 0,121371248557797 
649	 0,12094586372376 
650	 0,120325792062359 
651	 0,119696709902523 
652	 0,118628122739353 
653	 0,117532162348632 
654	 0,117407142944908 
655	 0,116830399707719 
656	 0,115482235311159 
657	 0,114478596562293 
658	 0,113191235921837 
659	 0,110965348270459 
660	 0,109295185972948 
661	 0,108306806872283 
662	 0,107395689073094 
663	 0,106268816819614 
664	 0,104845357311753 
665	 0,103891220077215 
666	 0,103230496848262 
667	 0,102453931482444 
668	 0,101540891384655 
669	 0,100650800807721 
670	 0,100453069199415 
671	 0,100437192086794 
672	 0,100162206451666 
673	 9,96038054063765E-02 
674	 9,90990234451923E-02 
675	 9,94899962019257E-02 
676	 9,99045326919079E-02 
677	 9,99407375599329E-02 
678	 9,94235555825286E-02 
679	 9,87743343865849E-02 
680	 0,098512225322729 
681	 9,91011253653893E-02 
682	 0,100311214804852 
683	 0,101008502427279 
684	 0,101859011171446 
685	 0,103245395745519 
686	 0,104946928008747 
687	 0,106724515422757 
688	 0,108105656663767 
689	 0,110758283662172 
690	 0,114886149420026 
691	 0,118772128270473 
692	 0,123302079223491 
693	 0,129273549908719 
694	 0,135585462469039 
695	 0,142439005589304 
696	 0,150766190406116 
697	 0,160410724110334 
698	 0,171161947472724 
699	 0,182156542612839 
700	 0,193861892968911 
701	 0,20695722800938 
702	 0,220288392514481 
703	 0,233572568912994 
704	 0,247098344780014 
705	 0,260665683992436 
706	 0,274108318305005 
707	 0,287010918224981 
708	 0,299665853569552 
709	 0,312816423269863 
710	 0,325250878700962 
711	 0,336716312474985 
712	 0,348051530191538 
713	 0,359225203324498 
714	 0,370105409730395 
715	 0,380342845170267 
716	 0,389730680067759 
717	 0,397952264986264 
718	 0,405706716895029 
719	 0,413315019532954 
720	 0,420587725565309 
721	 0,427398531415803 
722	 0,433613167112373 
723	 0,439188125109642 
724	 0,444236784675714 
725	 0,449104323975419 
726	 0,453657341084124 
727	 0,457812738399986 
728	 0,461645051620998 
729	 0,464929887502721 
730	 0,467182832445472 
731	 0,46982857213509 
732	 0,47300669267344 
733	 0,475130577730361 
734	 0,477053131052936 
735	 0,479487795964686 
736	 0,48107843708002 
737	 0,482078489327061 
738	 0,483688463853299 
739	 0,485285779361119 
740	 0,486674436166878 
741	 0,488083082295172 
742	 0,489196637899131 
743	 0,489658071801738 
744	 0,490211228329157 
745	 0,491049623011715 
746	 0,49219901032517 
747	 0,493094699858207 
748	 0,493462122782525 
749	 0,493787009952091 
750	 0,494242927292707 
751	 0,494999815012694 
752	 0,495554502556165 
753	 0,49582321887383 
754	 0,496068514052979 
755	 0,496421257273935 
756	 0,496957776017971 
757	 0,497465712387754 
758	 0,497810663251923 
759	 0,497806447572884 
760	 0,497710806842758 
761	 0,497723871080508 
762	 0,498258521944353 
763	 0,49882091488663 
764	 0,498938226094547 
765	 0,49905138047615 
766	 0,499118184975811 
767	 0,498716737535222 
768	 0,498764575029544 
769	 0,499472735023541 
770	 0,499706097887072 
771	 0,499690743770388 
772	 0,499804577497411 
773	 0,499582685488381 
774	 0,499249350800806 
775	 0,499816920474029 
776	 0,500122020578717 
777	 0,499681963053843 
778	 0,499712046698386 
779	 0,499997394825298 
780	 0,50002638760442 
781	 0,499949563728982 
782	 0,499830097816675 
783	 0,499760207848353 
784	 0,499792808431181 
785	 0,499946835718076 
786	 0,500083591238622 
787	 0,500142832929592 
788	 0,500079774279371 
789	 0,499780691509662 
790	 0,499296941825543 
791	 0,498890065947071 
792	 0,498792967112652 
793	 0,499148796290494 
794	 0,499553657314373 
795	 0,499694831477262 
796	 0,499069144389314 
797	 0,498561480570226 
798	 0,498502628777328 
799	 0,498831935720339 
800	 0,498931170844401 
801	 0,498296181460213 
802	 0,498173787839476 
803	 0,498517044619043 
804	 0,498572541116392 
805	 0,498671780830174 
806	 0,498851688748011 
807	 0,498758273215926 
808	 0,498683153004888 
809	 0,49893847600809 
810	 0,498940860432017 
811	 0,498751852634136 
812	 0,498898668678101 
813	 0,498980505444479 
814	 0,498900954399135 
815	 0,499178381595849 
816	 0,49935123242844 
817	 0,498860175061617 
818	 0,498927746292274 
819	 0,499476878826873 
820	 0,499401338330183 
821	 0,499343761215567 
822	 0,499546249186202 
823	 0,499539863939803 
824	 0,499506483634039 
825	 0,499726781020759 
826	 0,499851766969877 
827	 0,499827077122707 
828	 0,499711236554029 
829	 0,499869436286446 
830	 0,500372066806975 
831	 0,50028423411664 
832	 0,499986567776926 
833	 0,50013056681239 
834	 0,500247619928487 
835	 0,500244988771621 
836	 0,500143348508085 
837	 0,500290427101245 
838	 0,500783741886183 
839	 0,500907416999985 
840	 0,500722110269775 
841	 0,500440166364268 
842	 0,500196217798698 
843	 0,500148221781023 
844	 0,500707268246136 
845	 0,500811647244992 
846	 0,500044221596496 
847	 0,49997297642039 
848	 0,500299144022614 
849	 0,500346617727269 
850	 0,500309723511231 
851	 0,500145437212637 
852	 0,499584591905463 
853	 0,499152215771249 
854	 0,499195201924573 
855	 0,499945466744306 
856	 0,500471684702469 
857	 0,499522877543057 
858	 0,499236600684089 
859	 0,499751664458063 
860	 0,499705163575402 
861	 0,499531930563566 
862	 0,499407755883076 
863	 0,498984901702204 
864	 0,498799176899034 
865	 0,499545934084632 
866	 0,499823264151422 
867	 0,499536217741182 
868	 0,49946673123039 
869	 0,499651592860522 
870	 0,49998922407548 
871	 0,499585995242567 
872	 0,499140731438667 
873	 0,499556583671018 
874	 0,499731691749043 
875	 0,499731587139842 
876	 0,500565306177272 
877	 0,500826966391065 
878	 0,500199280414457 
879	 0,500542138312593 
880	 0,501189673364595 
881	 0,501272002414121 
882	 0,501037805789317 
883	 0,500707047284336 
884	 0,500727678199163 
885	 0,500805070421633 
886	 0,500861303985691 
887	 0,501060495983469 
888	 0,501192187583548 
889	 0,501076384290832 
890	 0,50112595336026 
891	 0,501165908593731 
892	 0,500627491576679 
893	 0,500249667402979 
894	 0,50025777285329 
895	 0,500425189300683 
896	 0,500628617371057 
897	 0,500762292286214 
898	 0,500813865067381 
899	 0,500747633647894 
900	 0,500475277196233 
901	 0,500952829519499 
902	 0,501809091796703 
903	 0,500519931932 
904	 0,499611223451363 
905	 0,500448960680552 
906	 0,500531103229402 
907	 0,50013509538517 
908	 0,500086145169722 
909	 0,500095863656924 
910	 0,500066474534213 
911	 0,499859308825989 
912	 0,499703103796316 
913	 0,499627511694754 
914	 0,499075302604243 
915	 0,498601226280603 
916	 0,498833971370023 
917	 0,499183423010609 
918	 0,499185770628997 
919	 0,497907610089333 
920	 0,497354420032333 
921	 0,497897864335354 
922	 0,497610057729237 
923	 0,49678177171031 
924	 0,49584609891522 
925	 0,495811331621003 
926	 0,496487854447108 
927	 0,497298120294676 
928	 0,496371300669837 
929	 0,494004597500982 
930	 0,493468361789688 
931	 0,493122661982599 
932	 0,492095902949665 
933	 0,491330748684372 
934	 0,491116221990752 
935	 0,491643732153974 
936	 0,491951814540439 
937	 0,491495013937063 
938	 0,489386800569734 
939	 0,487911484764177 
940	 0,487725365202584 
941	 0,486977401526731 
942	 0,486225368540659 
943	 0,485938944773716 
944	 0,484676771159173 
945	 0,483251484246482 
946	 0,483625166083213 
947	 0,483066962214691 
948	 0,481017677914011 
949	 0,478464862992241 
950	 0,476533510574022 
951	 0,475760137175975 
952	 0,474748662681512 
953	 0,473988439844965 
954	 0,474100713803109 
955	 0,471705964519812 
956	 0,467830737011925 
957	 0,466705218643623 
958	 0,467234574595397 
959	 0,468284843498356 
960	 0,466359316253553 
961	 0,464087159766114 
962	 0,463525042093329 
963	 0,463363390373701 
964	 0,463248301562624 
965	 0,462893873963999 
966	 0,463350388645764 
967	 0,464151877842857 
968	 0,463139749645474 
969	 0,461995832068759 
970	 0,461397549300781 
971	 0,460475307949874 
972	 0,460530060302293 
973	 0,462416302244661 
974	 0,462019984159417 
975	 0,460098201620028 
976	 0,459254595756841 
977	 0,459705828962207 
978	 0,460957002067159 
979	 0,460729292574817 
980	 0,46133058501426 
981	 0,463166541954006 
982	 0,461646982177537 
983	 0,459470097833949 
984	 0,459666910378212 
985	 0,460322775878546 
986	 0,460835363380198 
987	 0,46064403362717 
988	 0,461381619285106 
989	 0,462675566593848 
990	 0,461142757552141 
991	 0,461157443767115 
992	 0,46415264942935 
993	 0,463855522465935 
994	 0,462965982793851 
995	 0,464589734734963 
996	 0,464986149682806 
997	 0,464780620905933 
998	 0,466489881657487 
999	 0,466890910092036 
1000	 0,465919063110474 
1001	 0,466624528073896 
1002	 0,467927946718957 
1003	 0,469085850868585 
1004	 0,469186395405303 
1005	 0,468979477920673 
1006	 0,469330756969486 
1007	 0,470667117739662 
1008	 0,471858107580404 
1009	 0,470825203922172 
1010	 0,470466821045927 
1011	 0,470765381703478 
1012	 0,46853693486361 
1013	 0,468654011651189 
1014	 0,472503031087915 
1015	 0,475411693533365 
1016	 0,476742324994739 
1017	 0,476153637183112 
1018	 0,473548791943635 
1019	 0,471971724522563 
1020	 0,47556671154813 
1021	 0,475374953094973 
1022	 0,472285079479205 
1023	 0,475166605371104 
1024	 0,47622991432024 
1025	 0,47421870589987 
1026	 0,475827891805831 
1027	 0,47770940002476 
1028	 0,477959479638216 
1029	 0,480515146850532 
1030	 0,481933394537002 
1031	 0,478227517782906 
1032	 0,476327960768819 
1033	 0,477084614800719 
1034	 0,479085083882321 
1035	 0,483222771644735 
1036	 0,487341829423776 
1037	 0,48422100587997 
1038	 0,478444012217928 
1039	 0,474460598417722 
1040	 0,482395468491799 
1041	 0,487676677955521 
1042	 0,479573235655528 
1043	 0,478702940986036 
1044	 0,482534448896925 
1045	 0,483578306118499 
1046	 0,480173251497454 
1047	 0,476805546658293 
1048	 0,485213103178417 
1049	 0,490003061578371 
1050	 0,48754257997207 
1051	 0,4844585447446 
1052	 0,482020035487359 
1053	 0,481845893637804 
1054	 0,487374232259087 
1055	 0,487859410241994 
1056	 0,476290342532073 
1057	 0,477245599119718 
1058	 0,482737270039174 
1059	 0,477146865967139 
1060	 0,473722763560907 
1061	 0,474067620129661 
1062	 0,475455826499172 
1063	 0,480013445989123 
1064	 0,486124092419831 
1065	 0,488193744871946 
1066	 0,478384992013262 
1067	 0,459409050560283 
1068	 0,464549612175561 
1069	 0,47660718480714 
1070	 0,481337447083303 
1071	 0,485354938132197 
1072	 0,485435457987436 
1073	 0,478225973092171 
1074	 0,47685359570932 
1075	 0,479999065382886 
