Wavelength	SCO-GRA00117.asd
325	 8,04933390245546E-02 
326	-3,57379328155436E-02 
327	-0,126570061678215 
328	-6,42372244212016E-02 
329	 2,57061288226915E-02 
330	 8,13994606216053E-02 
331	 0,109512640624351 
332	 5,97848379225546E-02 
333	-2,27078531932919E-02 
334	-5,01060713203354E-02 
335	-5,41838159568113E-02 
336	-0,031537073853829 
337	 8,15111326617112E-02 
338	 0,117771943022472 
339	-4,34887844166798E-02 
340	-0,107944805460712 
341	-0,074203737716772 
342	-2,30781940174051E-02 
343	-1,70517604227661E-03 
344	-1,94216664591449E-02 
345	-2,55298200060557E-02 
346	-3,51426286540093E-02 
347	-0,065093869616646 
348	-1,73170663041642E-02 
349	 0,060687517093257 
350	-8,25429552661088E-04 
351	-4,46084022411872E-02 
352	-2,39381169688775E-02 
353	 6,50693545933391E-03 
354	 2,27977780431749E-02 
355	 4,87263580276929E-03 
356	-0,014768456925739 
357	-1,89074561304638E-02 
358	 1,19686433520844E-02 
359	 3,35994275891133E-02 
360	 2,35374348718234E-02 
361	-7,86959590839545E-03 
362	-3,14346972935332E-02 
363	-1,40535081734679E-02 
364	-8,48376172272668E-03 
365	-0,016935838407451 
366	 1,62902605825027E-04 
367	 2,65686668781867E-02 
368	 0,048269198580359 
369	 3,65669011754522E-02 
370	 8,76191731030048E-03 
371	-2,09814432053058E-03 
372	-2,9500088157949E-03 
373	 5,50133202994177E-03 
374	 2,61255628754623E-02 
375	 3,44077797343965E-02 
376	 0,015129622239784 
377	 1,09142679091258E-03 
378	 2,33177364517031E-04 
379	 1,59888967491329E-02 
380	 2,10195162353523E-02 
381	 9,06171167331269E-03 
382	 1,32584553666893E-03 
383	-5,5733707388481E-03 
384	-1,43727443078073E-02 
385	 0,004487103430996 
386	 3,28486848847633E-02 
387	 1,84664586094117E-02 
388	 9,74308949079004E-03 
389	 2,15630223932441E-02 
390	 2,00215756171763E-02 
391	 0,011140385848222 
392	 5,20006471191641E-03 
393	 1,69710110629373E-02 
394	 3,73980927348118E-02 
395	 3,00155776814021E-02 
396	 2,59209726813452E-02 
397	 3,73052470468192E-02 
398	 3,42664789610079E-02 
399	 2,41132846923732E-02 
400	 2,21972547218793E-02 
401	 2,09129356986059E-02 
402	 2,12876313074301E-02 
403	 3,57371712667942E-02 
404	 3,89774780433028E-02 
405	 1,70800153239034E-02 
406	 1,06770673419038E-02 
407	 1,63659538358275E-02 
408	 0,013743001575432 
409	 1,19113744467577E-02 
410	 1,35732620527567E-02 
411	 2,13218953072281E-02 
412	 2,46744273675366E-02 
413	 1,47719949477201E-02 
414	 1,30418150290548E-02 
415	 1,75103063548847E-02 
416	 1,22727047612416E-02 
417	 1,09617624171774E-02 
418	 1,72018585394031E-02 
419	 1,68699192377984E-02 
420	 1,60513814241393E-02 
421	 2,37716543201756E-02 
422	 2,70075548152031E-02 
423	 2,28139137145742E-02 
424	 1,02215507232569E-02 
425	 5,38972089450591E-03 
426	 0,016157625573049 
427	 1,78186135646291E-02 
428	 1,39232660473504E-02 
429	 1,69267137529291E-02 
430	 1,83264221131499E-02 
431	 1,69270386211887E-02 
432	 1,83443459994062E-02 
433	 1,92869712009797E-02 
434	 1,69287607886681E-02 
435	 1,60539194142614E-02 
436	 1,66929578622634E-02 
437	 1,65687410854196E-02 
438	 1,69240343357754E-02 
439	 1,76737600986155E-02 
440	 1,55409070995062E-02 
441	 1,32052372631966E-02 
442	 1,43036546675004E-02 
443	 0,0139568213171 
444	 1,24778888171188E-02 
445	 1,51104847865828E-02 
446	 1,69266985799871E-02 
447	 1,54315522309016E-02 
448	 1,80473564191151E-02 
449	 2,08409148167847E-02 
450	 1,45140846915982E-02 
451	 1,03620549665888E-02 
452	 1,15582526673938E-02 
453	 1,43972805480108E-02 
454	 1,70864251425138E-02 
455	 1,81290824512962E-02 
456	 1,79891194779775E-02 
457	 1,69568786639894E-02 
458	 1,53643429988415E-02 
459	 1,42941906189102E-02 
460	 1,44359203279693E-02 
461	 1,64037514553735E-02 
462	 1,86422531465931E-02 
463	 0,019112459445532 
464	 1,81688509662179E-02 
465	 1,65096192556445E-02 
466	 1,58062630036129E-02 
467	 1,67259133313808E-02 
468	 1,92257223932139E-02 
469	 1,87562933322565E-02 
470	 1,66751961156466E-02 
471	 1,70346514860395E-02 
472	 1,72835261128781E-02 
473	 1,69309009782904E-02 
474	 1,76001769638799E-02 
475	 1,76190087515897E-02 
476	 1,54073085260229E-02 
477	 1,37281577361441E-02 
478	 0,013856022481677 
479	 1,79336884268004E-02 
480	 1,98622912889849E-02 
481	 1,73131276275699E-02 
482	 1,61543974146415E-02 
483	 1,66995328233697E-02 
484	 1,84089642425033E-02 
485	 1,92531847201603E-02 
486	 1,86363740372584E-02 
487	 0,016665118075675 
488	 1,57056560580592E-02 
489	 1,73278387123088E-02 
490	 1,83655799936286E-02 
491	 1,84240650120229E-02 
492	 1,81056712496584E-02 
493	 1,63975060173477E-02 
494	 1,39212309061476E-02 
495	 1,53522584153568E-02 
496	 1,81496268242908E-02 
497	 1,90950806460998E-02 
498	 2,00297283479581E-02 
499	 2,03645489424964E-02 
500	 1,68218434549533E-02 
501	 1,50658909908731E-02 
502	 1,76825490017336E-02 
503	 1,73030475091404E-02 
504	 1,52371157136949E-02 
505	 1,54821680940379E-02 
506	 1,53980604441508E-02 
507	 1,48301788939305E-02 
508	 1,64262394427598E-02 
509	 1,77990636254163E-02 
510	 1,68529405954674E-02 
511	 1,66555758198933E-02 
512	 1,72115556452741E-02 
513	 0,016939378140036 
514	 0,016659056319839 
515	 1,68228706635518E-02 
516	 1,79935141082058E-02 
517	 1,91999841576244E-02 
518	 1,90717714476756E-02 
519	 1,92464974645699E-02 
520	 0,019729831497604 
521	 1,89751275425545E-02 
522	 1,79065702984717E-02 
523	 1,72965006400472E-02 
524	 1,76136013805871E-02 
525	 1,84144869673199E-02 
526	 1,86532943045966E-02 
527	 1,83789929255991E-02 
528	 1,77462315009618E-02 
529	 1,76979285866677E-02 
530	 1,76804366832549E-02 
531	 1,69953875290913E-02 
532	 1,69978456289106E-02 
533	 1,75807970653425E-02 
534	 1,74459368726337E-02 
535	 1,71463219418721E-02 
536	 1,70446837514202E-02 
537	 1,73268943285483E-02 
538	 1,76860176671911E-02 
539	 1,74907674043855E-02 
540	 1,75664137008593E-02 
541	 1,78964674446731E-02 
542	 1,70775139353856E-02 
543	 0,01649876562649 
544	 1,74985074802925E-02 
545	 1,81866493738094E-02 
546	 1,81605678354603E-02 
547	 1,73931029564988E-02 
548	 1,69305844884477E-02 
549	 1,72748227152032E-02 
550	 1,77996274784577E-02 
551	 1,80825326203093E-02 
552	 1,75911825325919E-02 
553	 1,72889799238383E-02 
554	 1,73804025426541E-02 
555	 1,73850743977896E-02 
556	 1,75013096305315E-02 
557	 0,017856869465277 
558	 1,78674751174959E-02 
559	 1,75245732631045E-02 
560	 1,69461929592114E-02 
561	 0,017067745871488 
562	 1,79761055201582E-02 
563	 1,75480569567192E-02 
564	 1,67604629555193E-02 
565	 1,71471487853409E-02 
566	 1,71928250174565E-02 
567	 1,67893148598837E-02 
568	 1,69115854365955E-02 
569	 0,017176968072894 
570	 1,73314355696367E-02 
571	 0,017734747953149 
572	 1,80769743085871E-02 
573	 1,75207215672501E-02 
574	 0,017376332764255 
575	 1,79857879944456E-02 
576	 1,84087862548308E-02 
577	 1,87208737725427E-02 
578	 1,90792157303286E-02 
579	 1,93215276804869E-02 
580	 1,94765144948978E-02 
581	 1,96701415486677E-02 
582	 2,01993121357817E-02 
583	 2,10713686785345E-02 
584	 2,08767345775911E-02 
585	 2,03822583080383E-02 
586	 2,12726013873082E-02 
587	 2,20517989810235E-02 
588	 2,22499254226324E-02 
589	 0,021878997279812 
590	 2,18101435695111E-02 
591	 2,27866894258507E-02 
592	 2,33275706490084E-02 
593	 2,32356084740719E-02 
594	 2,28230919208444E-02 
595	 2,24627546498427E-02 
596	 0,022391148708887 
597	 2,27010941415576E-02 
598	 2,28782518664323E-02 
599	 2,21315366666092E-02 
600	 2,21649245076004E-02 
601	 2,29026640777621E-02 
602	 2,20526068101245E-02 
603	 2,11767070386142E-02 
604	 2,14697847704767E-02 
605	 2,14204202876642E-02 
606	 2,09801546694229E-02 
607	 2,05518839946081E-02 
608	 0,020760223717346 
609	 2,15933117169271E-02 
610	 2,13646517243751E-02 
611	 2,08218266675717E-02 
612	 2,10573943045446E-02 
613	 2,10687225557081E-02 
614	 2,07991637096047E-02 
615	 2,09418881350481E-02 
616	 0,020769330244748 
617	 1,99336125500316E-02 
618	 1,96754814830932E-02 
619	 1,99310569714148E-02 
620	 2,02214553136937E-02 
621	 2,04622102180775E-02 
622	 2,05006347809679E-02 
623	 1,99021053477862E-02 
624	 1,94990979053608E-02 
625	 2,01230258092104E-02 
626	 2,05567306516228E-02 
627	 2,05333149079403E-02 
628	 2,00960861471128E-02 
629	 1,96857157671358E-02 
630	 1,96326039022747E-02 
631	 2,03016007292704E-02 
632	 2,12192489963196E-02 
633	 2,16221919651231E-02 
634	 2,11129822263066E-02 
635	 2,01337289049659E-02 
636	 2,10007834612597E-02 
637	 2,20768594484789E-02 
638	 2,19816700780594E-02 
639	 2,22999478061235E-02 
640	 2,31351721552766E-02 
641	 2,42405264600295E-02 
642	 2,42905611863816E-02 
643	 2,31356160792505E-02 
644	 2,36222952682324E-02 
645	 2,46714432878086E-02 
646	 2,45516321836282E-02 
647	 2,41325698619846E-02 
648	 2,37261256485131E-02 
649	 2,36537773473927E-02 
650	 0,023702047987078 
651	 2,36779381704544E-02 
652	 2,31960397535585E-02 
653	 2,26438009547788E-02 
654	 2,29688476408723E-02 
655	 2,29760290560261E-02 
656	 2,23663788438435E-02 
657	 2,18279414514146E-02 
658	 2,13381779852561E-02 
659	 2,08344530547108E-02 
660	 2,03397824454585E-02 
661	 1,99299188967653E-02 
662	 0,019888152855102 
663	 1,94272560916384E-02 
664	 1,83837505703574E-02 
665	 1,86897594642216E-02 
666	 1,94125576397765E-02 
667	 1,87693177359497E-02 
668	 1,81132932696853E-02 
669	 1,78519466856255E-02 
670	 1,80238132514791E-02 
671	 1,81425224588008E-02 
672	 1,78692856352402E-02 
673	 1,80997117796856E-02 
674	 1,86393373668357E-02 
675	 1,86728676486935E-02 
676	 1,86480658847557E-02 
677	 1,86589016474467E-02 
678	 1,83392896743651E-02 
679	 1,80044633452207E-02 
680	 1,80519095037789E-02 
681	 1,82873751000437E-02 
682	 1,86560568013385E-02 
683	 1,91722506130756E-02 
684	 1,95780814364089E-02 
685	 0,019745737430901 
686	 2,00187838558937E-02 
687	 2,03972216534342E-02 
688	 2,07471887510176E-02 
689	 2,16143929021344E-02 
690	 2,29259117496421E-02 
691	 0,023527035920906 
692	 2,44200207662595E-02 
693	 2,65037654071664E-02 
694	 2,87989100699824E-02 
695	 3,13042222284024E-02 
696	 3,44242514696338E-02 
697	 0,03824542711313 
698	 4,27723331233533E-02 
699	 4,77095032510244E-02 
700	 5,31094881751457E-02 
701	 5,90670695189504E-02 
702	 6,53126704726604E-02 
703	 7,18573104367496E-02 
704	 7,90042733967934E-02 
705	 8,65813210126011E-02 
706	 9,43545775284643E-02 
707	 0,101281345820318 
708	 0,108035451972971 
709	 0,116210244623016 
710	 0,124040718368995 
711	 0,131069542399076 
712	 0,138078021607333 
713	 0,144910968194586 
714	 0,151385063045707 
715	 0,157748229571738 
716	 0,163917266330807 
717	 0,169637398404864 
718	 0,17476088981365 
719	 0,179318091027852 
720	 0,183896559696445 
721	 0,188452664866644 
722	 0,192851916663978 
723	 0,196587678441274 
724	 0,199787914936071 
725	 0,203372924958202 
726	 0,206512016095285 
727	 0,208795526922463 
728	 0,211394683849948 
729	 0,213919209392328 
730	 0,215320850623896 
731	 0,217159749883972 
732	 0,219587226169905 
733	 0,221031184585968 
734	 0,222183353710229 
735	 0,223677429464602 
736	 0,225053793575278 
737	 0,22621757268372 
738	 0,227120314563837 
739	 0,227937678867426 
740	 0,228767660454751 
741	 0,229712785382176 
742	 0,230486390032739 
743	 0,230766545781559 
744	 0,231334643662713 
745	 0,232262882459412 
746	 0,233234041388529 
747	 0,233888229819389 
748	 0,234052930726093 
749	 0,234089542142784 
750	 0,234294259346009 
751	 0,235037810748572 
752	 0,235577041844155 
753	 0,235781351750517 
754	 0,23606419208699 
755	 0,236282555639816 
756	 0,236361021882927 
757	 0,236636289526276 
758	 0,236969352863938 
759	 0,236970182659528 
760	 0,236956957323204 
761	 0,237064116012054 
762	 0,237324807523834 
763	 0,23782601643955 
764	 0,238584837823304 
765	 0,238700841333184 
766	 0,23829903645683 
767	 0,238103047161135 
768	 0,238242771783256 
769	 0,238737510188617 
770	 0,239215096053632 
771	 0,239346817666146 
772	 0,238827951924772 
773	 0,238960829758738 
774	 0,239661557394727 
775	 0,23972433130675 
776	 0,239515786709324 
777	 0,239299760531161 
778	 0,23958749484095 
779	 0,240055831064841 
780	 0,240149507269975 
781	 0,240112964160913 
782	 0,24005091602407 
783	 0,240075004486858 
784	 0,240305582296744 
785	 0,240745975227206 
786	 0,240770318109385 
787	 0,240487337974415 
788	 0,240221424491782 
789	 0,240500580827443 
790	 0,241097177803491 
791	 0,240264793179275 
792	 0,23958712181083 
793	 0,240270373970835 
794	 0,240637359194915 
795	 0,2405789043459 
796	 0,240464333421044 
797	 0,240443940463716 
798	 0,240592447056758 
799	 0,240940988785865 
800	 0,240977455106326 
801	 0,240295191489645 
802	 0,240079152718477 
803	 0,240271071548297 
804	 0,240051928673129 
805	 0,240117612287243 
806	 0,240629284185451 
807	 0,241068436415771 
808	 0,241378336945739 
809	 0,241535160310457 
810	 0,241410154796659 
811	 0,241140573444145 
812	 0,241149256868278 
813	 0,241107047460932 
814	 0,241026353874259 
815	 0,241813526777002 
816	 0,242619781834738 
817	 0,242396282557683 
818	 0,242573322073757 
819	 0,243115901474758 
820	 0,242916570359939 
821	 0,24269313652914 
822	 0,242787520877993 
823	 0,243003564916179 
824	 0,243342399841223 
825	 0,243817487005973 
826	 0,244045602678964 
827	 0,244062659389033 
828	 0,244340035084915 
829	 0,244463210404368 
830	 0,244298099968033 
831	 0,244463379189818 
832	 0,244713009122337 
833	 0,244628103154684 
834	 0,244348309435821 
835	 0,244129853304819 
836	 0,244693865953984 
837	 0,245159665395443 
838	 0,245073154454255 
839	 0,244960191886869 
840	 0,244970425905763 
841	 0,2452214308473 
842	 0,245567263285516 
843	 0,245866293412959 
844	 0,245855240168658 
845	 0,245666142303498 
846	 0,245421791776052 
847	 0,245335970456531 
848	 0,245499944497315 
849	 0,245992299829957 
850	 0,245884046392109 
851	 0,245204634362035 
852	 0,244868372236231 
853	 0,244680154986947 
854	 0,244683126128708 
855	 0,245835048436611 
856	 0,246980914476431 
857	 0,246468097981075 
858	 0,245647609792618 
859	 0,24505609807979 
860	 0,245159640839968 
861	 0,24560522652227 
862	 0,246044180045668 
863	 0,245603235536057 
864	 0,244969972628755 
865	 0,245151180562555 
866	 0,245989861821313 
867	 0,246924936507273 
868	 0,246338462960594 
869	 0,246157006658057 
870	 0,247021317133104 
871	 0,246657215630568 
872	 0,246230001020505 
873	 0,247306781150043 
874	 0,247696052755331 
875	 0,247270012855366 
876	 0,247028007044766 
877	 0,247242599357649 
878	 0,247898631932319 
879	 0,247951014898287 
880	 0,247872576994868 
881	 0,248243996973015 
882	 0,248603599397275 
883	 0,248813228752605 
884	 0,248688261029495 
885	 0,248956737878683 
886	 0,249633369636631 
887	 0,249265589636478 
888	 0,248916803058622 
889	 0,249571274603033 
890	 0,249771124843852 
891	 0,249416705039381 
892	 0,248830271845425 
893	 0,248627228623673 
894	 0,248967914880278 
895	 0,249417867257394 
896	 0,249727422872666 
897	 0,249764619364765 
898	 0,250219183620156 
899	 0,250633902169478 
900	 0,249978631951668 
901	 0,250238874150577 
902	 0,251247905770595 
903	 0,250068507460008 
904	 0,249131058642075 
905	 0,249798499111831 
906	 0,25000920971251 
907	 0,249959317193052 
908	 0,250276388653254 
909	 0,250259584160194 
910	 0,249978614663385 
911	 0,250221530131606 
912	 0,250259578496183 
913	 0,249848089960831 
914	 0,249764929676151 
915	 0,249604636879107 
916	 0,248905954199828 
917	 0,24901204265481 
918	 0,249313394478568 
919	 0,247337688873346 
920	 0,247043100919457 
921	 0,248943531841497 
922	 0,248348902422182 
923	 0,247401385099679 
924	 0,247961324642216 
925	 0,248406596099664 
926	 0,248637010529768 
927	 0,248976340016938 
928	 0,24829148918865 
929	 0,246802678601906 
930	 0,246541523952749 
931	 0,24613089074099 
932	 0,244972053945614 
933	 0,244856798926525 
934	 0,245078019233613 
935	 0,244519928948452 
936	 0,24460747155535 
937	 0,244743288387491 
938	 0,242270398622867 
939	 0,24055366417024 
940	 0,240588912526875 
941	 0,240216636619647 
942	 0,239472678442523 
943	 0,238543878811038 
944	 0,238079322806853 
945	 0,237541417123483 
946	 0,235700132247947 
947	 0,234911992855657 
948	 0,235018930082335 
949	 0,232795173212409 
950	 0,230703426087632 
951	 0,229973005219781 
952	 0,228468241083191 
953	 0,227518059015083 
954	 0,228740109223935 
955	 0,227388299692879 
956	 0,223989950108795 
957	 0,222326518053556 
958	 0,222240605589557 
959	 0,22325012937174 
960	 0,222885076226418 
961	 0,222324021422149 
962	 0,222383405665143 
963	 0,221478906720811 
964	 0,220237104776547 
965	 0,219911841830052 
966	 0,220574922112109 
967	 0,22133914193243 
968	 0,21922783000884 
969	 0,218665350601309 
970	 0,220579519825708 
971	 0,218769163366216 
972	 0,217025852750697 
973	 0,218818127123866 
974	 0,219176854526592 
975	 0,218249355299491 
976	 0,217757323073813 
977	 0,218385705674631 
978	 0,219714998015065 
979	 0,219453876632581 
980	 0,219160869307226 
981	 0,219446696045416 
982	 0,218976357478449 
983	 0,218687080174004 
984	 0,21949940641424 
985	 0,219580709266024 
986	 0,219277586965674 
987	 0,219926601025594 
988	 0,220407565814777 
989	 0,220118161881001 
990	 0,217827304269149 
991	 0,217432541275815 
992	 0,220200753821592 
993	 0,220341679498559 
994	 0,219691672260186 
995	 0,220501930473091 
996	 0,219884549563212 
997	 0,219143364615381 
998	 0,221766097898855 
999	 0,223010743518867 
1000	 0,222612099935342 
1001	 0,225239710327537 
1002	 0,225355669945493 
1003	 0,221525660293054 
1004	 0,222305469324947 
1005	 0,224696441670516 
1006	 0,225293111458717 
1007	 0,227453762462016 
1008	 0,229623348831882 
1009	 0,228263933796568 
1010	 0,228267059001734 
1011	 0,229431196364191 
1012	 0,225951611406249 
1013	 0,226490137106038 
1014	 0,232821843049989 
1015	 0,233269781307307 
1016	 0,231192667091252 
1017	 0,230073286986158 
1018	 0,229478143450044 
1019	 0,22990670152802 
1020	 0,231902212759456 
1021	 0,23027498787874 
1022	 0,226910115080078 
1023	 0,230609480931935 
1024	 0,233421559143652 
1025	 0,233651665450926 
1026	 0,236938972665168 
1027	 0,238446806031964 
1028	 0,235808396135894 
1029	 0,236346878409491 
1030	 0,236348374977375 
1031	 0,231285046427915 
1032	 0,232108214156819 
1033	 0,237065315356582 
1034	 0,23841406819877 
1035	 0,238862775192395 
1036	 0,238899239680278 
1037	 0,238211780125155 
1038	 0,236857923440552 
1039	 0,236153054790429 
1040	 0,242316875882816 
1041	 0,247462033375322 
1042	 0,244850653094586 
1043	 0,237855865245574 
1044	 0,234665883557018 
1045	 0,244563041496189 
1046	 0,248571320890234 
1047	 0,245754030953586 
1048	 0,244187857598974 
1049	 0,242922673184048 
1050	 0,242283151316716 
1051	 0,242281927063812 
1052	 0,247089435449565 
1053	 0,25539638284257 
1054	 0,251421411505555 
1055	 0,241834401817912 
1056	 0,234307268263314 
1057	 0,233172490826726 
1058	 0,236389443456123 
1059	 0,239453451452882 
1060	 0,236154160350983 
1061	 0,230300913421153 
1062	 0,234308561084783 
1063	 0,241613891349487 
1064	 0,247820134725604 
1065	 0,244857244245805 
1066	 0,239347649066687 
1067	 0,234379758189292 
1068	 0,226974846337858 
1069	 0,226356774365816 
1070	 0,236776150272599 
1071	 0,237948581820254 
1072	 0,239784636479891 
1073	 0,254749013308925 
1074	 0,246626722925315 
1075	 0,227766960925559 
