Wavelength	SCO-GRA00429.asd
325	 0,331759261339384 
326	 0,358456301530566 
327	 0,250286251950145 
328	 1,79038689752265E-02 
329	-5,8826684785524E-03 
330	 8,71869342184671E-02 
331	 0,204946241022874 
332	 0,224540839395379 
333	 0,209829017007206 
334	 0,34456373003701 
335	 0,348515112754674 
336	 0,189298568315279 
337	 0,226362115420658 
338	 0,30710032424776 
339	 0,27978225166979 
340	 0,21736238784726 
341	 0,158744637191979 
342	 0,18899232490958 
343	 0,18076091030921 
344	 0,116103096817802 
345	 0,13232593651091 
346	 0,157968287603668 
347	 0,126855156435777 
348	 0,168728533393393 
349	 0,240693139938072 
350	 0,166178287514676 
351	 0,128241889697761 
352	 0,169913091113444 
353	 0,162836812987361 
354	 0,135421248408831 
355	 0,129952195335072 
356	 0,1454542677084 
357	 0,166939646982671 
358	 0,159395882001412 
359	 0,154590353300003 
360	 0,162853391018146 
361	 0,139429104569341 
362	 0,11994518946053 
363	 0,155766965720827 
364	 0,176420356709874 
365	 0,172530003764456 
366	 0,181336808588924 
367	 0,17800370227411 
368	 0,153636251562317 
369	 0,172010797240008 
370	 0,20064666520587 
371	 0,172087582619756 
372	 0,14321727745745 
373	 0,134851274699447 
374	 0,15805865984203 
375	 0,170711182829874 
376	 0,145902939158966 
377	 0,14372618959495 
378	 0,15805441168638 
379	 0,152723574557177 
380	 0,147178473050266 
381	 0,147424391676217 
382	 0,153378231166984 
383	 0,155046113508411 
384	 0,144342197637035 
385	 0,153480587847112 
386	 0,173604199870414 
387	 0,171893787592048 
388	 0,169906798653122 
389	 0,175090794788513 
390	 0,182169863658063 
391	 0,181340624445557 
392	 0,161361711760561 
393	 0,155115473497694 
394	 0,163801338083375 
395	 0,165224872479421 
396	 0,17391564344815 
397	 0,192073015187787 
398	 0,182136377788227 
399	 0,16367388716188 
400	 0,171202723310249 
401	 0,176654898904418 
402	 0,174659667046392 
403	 0,172799337108134 
404	 0,170415772162669 
405	 0,167194572660222 
406	 0,167592047420722 
407	 0,16645933247316 
408	 0,149654797517562 
409	 0,150555083654132 
410	 0,170541111244392 
411	 0,168909930876006 
412	 0,161638189774137 
413	 0,165024298251876 
414	 0,167463698095225 
415	 0,16659983714824 
416	 0,161004318505337 
417	 0,157903874907714 
418	 0,159853635663329 
419	 0,16129054341134 
420	 0,162407375643772 
421	 0,1642281319115 
422	 0,163166493606309 
423	 0,159287253900297 
424	 0,154688205514836 
425	 0,152703522728337 
426	 0,155432477544657 
427	 0,162070235683178 
428	 0,16736906194977 
429	 0,162497937225651 
430	 0,157247597079226 
431	 0,155271076621672 
432	 0,1575816614961 
433	 0,16079087586086 
434	 0,161772830950964 
435	 0,160216122910331 
436	 0,157493320145844 
437	 0,157398081905828 
438	 0,15577919333192 
439	 0,151967688819047 
440	 0,151856335571585 
441	 0,154507591716533 
442	 0,158052145260379 
443	 0,159087679845761 
444	 0,158334257829589 
445	 0,161950118963027 
446	 0,163753237229118 
447	 0,160560738546729 
448	 0,160232018526711 
449	 0,161932187661255 
450	 0,162248062613017 
451	 0,160274061747219 
452	 0,157520292817712 
453	 0,162313352006338 
454	 0,168027617380313 
455	 0,168349189138246 
456	 0,16595526401636 
457	 0,162949913764881 
458	 0,163463687255312 
459	 0,163967712562867 
460	 0,163289342688849 
461	 0,163891343936067 
462	 0,165275408850348 
463	 0,166504791885623 
464	 0,166759986156085 
465	 0,165871461106852 
466	 0,163846292104021 
467	 0,163184669427764 
468	 0,165243882847217 
469	 0,166211217957552 
470	 0,166169456184185 
471	 0,166473075652047 
472	 0,167014145378886 
473	 0,167497444062906 
474	 0,166706133986334 
475	 0,16496805236814 
476	 0,162795709892783 
477	 0,162809005451904 
478	 0,165370090496879 
479	 0,170559800436314 
480	 0,17245091812009 
481	 0,16901134062694 
482	 0,167928820405601 
483	 0,168547097005215 
484	 0,168558923853499 
485	 0,168561416798857 
486	 0,168405266156003 
487	 0,167099875795642 
488	 0,166494645079528 
489	 0,16771774191684 
490	 0,166981475787154 
491	 0,165158813703106 
492	 0,165707756472031 
493	 0,16612108654326 
494	 0,165626078884175 
495	 0,164743688298574 
496	 0,16445253915987 
497	 0,165752500552769 
498	 0,16750158140163 
499	 0,168555230623919 
500	 0,166038551730094 
501	 0,165318298440226 
502	 0,168816656339381 
503	 0,169342429125132 
504	 0,168369523750129 
505	 0,17034161461041 
506	 0,169889780766435 
507	 0,167163353243567 
508	 0,169649221770311 
509	 0,172846341984085 
510	 0,172578045191163 
511	 0,172570688437563 
512	 0,173387140108975 
513	 0,174787982033621 
514	 0,175487199144084 
515	 0,175265695996357 
516	 0,176853844544342 
517	 0,178916235751035 
518	 0,179323945537692 
519	 0,178774976961665 
520	 0,177987365249378 
521	 0,178820578890915 
522	 0,179818847149403 
523	 0,179856179282043 
524	 0,178948005586608 
525	 0,177905925101568 
526	 0,178674921003176 
527	 0,178467943298121 
528	 0,176904963947511 
529	 0,177612318735171 
530	 0,178418389960408 
531	 0,176619905364727 
532	 0,17549553803332 
533	 0,175659395904902 
534	 0,176537360543366 
535	 0,177293747253497 
536	 0,177408334187073 
537	 0,177320734818583 
538	 0,1772750289593 
539	 0,177625907546679 
540	 0,177690492803408 
541	 0,177379578619799 
542	 0,177247283682045 
543	 0,177578792911072 
544	 0,178548740025021 
545	 0,178621440440968 
546	 0,177982296794727 
547	 0,178041805395635 
548	 0,178305723488315 
549	 0,178564348447045 
550	 0,179020901219917 
551	 0,179281939647509 
552	 0,178700187653241 
553	 0,178600029140481 
554	 0,17903219861004 
555	 0,178580400183578 
556	 0,177852120050897 
557	 0,177401281715321 
558	 0,177285398551747 
559	 0,177225018495499 
560	 0,176444289347971 
561	 0,175835784770888 
562	 0,175603595657024 
563	 0,174561565740985 
564	 0,173488280575014 
565	 0,173519858082323 
566	 0,173851658883192 
567	 0,174355529836533 
568	 0,175425254987826 
569	 0,17625764880983 
570	 0,176381920702268 
571	 0,177087041190132 
572	 0,17830840565931 
573	 0,179423713215904 
574	 0,180798080992982 
575	 0,182507995067024 
576	 0,184406756168276 
577	 0,186215204190635 
578	 0,187650875648155 
579	 0,189222243987498 
580	 0,191016180494226 
581	 0,19296789635316 
582	 0,194596255384491 
583	 0,195654502060299 
584	 0,196593139028115 
585	 0,197760734546403 
586	 0,199666924010269 
587	 0,201133392941244 
588	 0,201956658802807 
589	 0,20300208279674 
590	 0,204188126024817 
591	 0,205408078700266 
592	 0,20693767848683 
593	 0,208271622300041 
594	 0,207986849085081 
595	 0,207316208324957 
596	 0,20699774137376 
597	 0,207571065253013 
598	 0,208461283825816 
599	 0,208745143525773 
600	 0,208689077064571 
601	 0,208355725505332 
602	 0,207821440227586 
603	 0,20711062309957 
604	 0,206245314931093 
605	 0,205108931084525 
606	 0,204040833901264 
607	 0,203952516913412 
608	 0,203605176875451 
609	 0,202572394564858 
610	 0,201391814300756 
611	 0,200495082103395 
612	 0,200334853397658 
613	 0,199852893975603 
614	 0,198956244448946 
615	 0,198346615000884 
616	 0,197550947993301 
617	 0,196434848955386 
618	 0,196585823100721 
619	 0,197307744582174 
620	 0,196828225001585 
621	 0,196118239966965 
622	 0,19556492866824 
623	 0,195400198356848 
624	 0,195596605979436 
625	 0,196087249394851 
626	 0,196538560851898 
627	 0,196861185366323 
628	 0,197067869049727 
629	 0,19734893621593 
630	 0,197780317181978 
631	 0,197956707646346 
632	 0,198461770996107 
633	 0,200359312035498 
634	 0,201318657379106 
635	 0,201089803349549 
636	 0,201675694682627 
637	 0,202773248140474 
638	 0,204075177652303 
639	 0,205697618608759 
640	 0,20739839843073 
641	 0,208729005666247 
642	 0,209376434427157 
643	 0,209450070902587 
644	 0,210557721238269 
645	 0,211767454548686 
646	 0,211698169328478 
647	 0,211309673648313 
648	 0,210854982479933 
649	 0,210354917195715 
650	 0,209617407346621 
651	 0,208547527913398 
652	 0,207542713728963 
653	 0,20653645518492 
654	 0,205303894667963 
655	 0,203729777291722 
656	 0,201761417979219 
657	 0,199386174748374 
658	 0,197014926012653 
659	 0,195049428127367 
660	 0,19277466982879 
661	 0,19032947919541 
662	 0,188598427421491 
663	 0,186705835966232 
664	 0,184338672183099 
665	 0,182592695480766 
666	 0,181316018498609 
667	 0,180067643041746 
668	 0,178988268589341 
669	 0,178004934889852 
670	 0,176711773303181 
671	 0,175738580930486 
672	 0,175561491798356 
673	 0,175502455151721 
674	 0,175465983678856 
675	 0,175657612542631 
676	 0,175375911451669 
677	 0,174537861547501 
678	 0,174217536032905 
679	 0,174410316083308 
680	 0,17498258323628 
681	 0,17534562436664 
682	 0,175740287317072 
683	 0,177431736834398 
684	 0,179289513997113 
685	 0,180765724707077 
686	 0,183229898671644 
687	 0,186373302288361 
688	 0,189264188216439 
689	 0,193190739047522 
690	 0,198392381001626 
691	 0,204022618456584 
692	 0,210352345435986 
693	 0,21764862346396 
694	 0,225951594721302 
695	 0,235057308774247 
696	 0,244378403658683 
697	 0,254735286132147 
698	 0,26628906199414 
699	 0,278027972527656 
700	 0,289884044290576 
701	 0,301883363757907 
702	 0,314174940494063 
703	 0,326559795439905 
704	 0,338438197815562 
705	 0,349782156734912 
706	 0,360618459860816 
707	 0,371286476302535 
708	 0,381542034091193 
709	 0,39083449696226 
710	 0,399915993663876 
711	 0,408888916272665 
712	 0,41715757798167 
713	 0,42478562106279 
714	 0,431844598784318 
715	 0,438552348751132 
716	 0,444884541893807 
717	 0,450693778424786 
718	 0,45577376601851 
719	 0,460197902767478 
720	 0,464945951579049 
721	 0,469529062998781 
722	 0,473210612635918 
723	 0,476672332462175 
724	 0,479966194976038 
725	 0,482624920925012 
726	 0,485220500040215 
727	 0,488015817741128 
728	 0,490006866602224 
729	 0,491550886641259 
730	 0,493507976393895 
731	 0,49545179580139 
732	 0,497166399218427 
733	 0,498262453102164 
734	 0,499189405738933 
735	 0,500367201563167 
736	 0,501864892832548 
737	 0,503331721539654 
738	 0,503886605679006 
739	 0,504247657165498 
740	 0,504771408864533 
741	 0,505759756284923 
742	 0,506703902043855 
743	 0,50700121469397 
744	 0,507473384003684 
745	 0,50815955044357 
746	 0,508592941431989 
747	 0,508903883867731 
748	 0,509141800174742 
749	 0,509095516646664 
750	 0,509250762900365 
751	 0,510389116966926 
752	 0,511012715787449 
753	 0,510922852325053 
754	 0,511144692515756 
755	 0,511320568192088 
756	 0,511232588729359 
757	 0,511398186687653 
758	 0,511819761740739 
759	 0,51238896136208 
760	 0,512516330696427 
761	 0,512213317971662 
762	 0,512606971296398 
763	 0,5130423324188 
764	 0,512884227307355 
765	 0,512928640030289 
766	 0,513126169468795 
767	 0,512911818427089 
768	 0,512890329739063 
769	 0,513213898243571 
770	 0,513279624374138 
771	 0,513198594849995 
772	 0,513165540742899 
773	 0,513313173368158 
774	 0,513550702745396 
775	 0,513510406197115 
776	 0,513361091395249 
777	 0,513223630058559 
778	 0,513265951718981 
779	 0,513418874968331 
780	 0,513548756295076 
781	 0,513659777962632 
782	 0,51376557322866 
783	 0,513977028163881 
784	 0,514011302376979 
785	 0,513732014815113 
786	 0,513627635594762 
787	 0,513755581541751 
788	 0,514112375775881 
789	 0,514050404828756 
790	 0,513576168530884 
791	 0,513619947936228 
792	 0,513836994811106 
793	 0,513896452001952 
794	 0,513529659797775 
795	 0,513065062977032 
796	 0,51330980578624 
797	 0,513516064883359 
798	 0,513444041482276 
799	 0,513233874188315 
800	 0,513114684327649 
801	 0,513279385415791 
802	 0,513410550888713 
803	 0,513465986650269 
804	 0,513505497543271 
805	 0,513583460399146 
806	 0,513668420977639 
807	 0,513441706796496 
808	 0,51324982661545 
809	 0,513469199842387 
810	 0,513726429115591 
811	 0,513863604168862 
812	 0,513695374514282 
813	 0,513425553713587 
814	 0,513256062355221 
815	 0,513747348087252 
816	 0,514270650986552 
817	 0,514051943023358 
818	 0,514005907065989 
819	 0,514160407476171 
820	 0,513918382995421 
821	 0,513874111118781 
822	 0,514200195085241 
823	 0,514033346338828 
824	 0,513837772834562 
825	 0,51429870887058 
826	 0,514487118847311 
827	 0,514411699475694 
828	 0,514876577496616 
829	 0,515143782327981 
830	 0,514936056237022 
831	 0,515222903570213 
832	 0,515385611259747 
833	 0,51447051994063 
834	 0,514247138077403 
835	 0,514864875009083 
836	 0,515333371363821 
837	 0,515372855525846 
838	 0,514971130275368 
839	 0,51548516894653 
840	 0,515943163440179 
841	 0,514794795086885 
842	 0,514657377800701 
843	 0,515484194357109 
844	 0,51477587477487 
845	 0,514138735441528 
846	 0,514423721702095 
847	 0,514974253934511 
848	 0,515485922641221 
849	 0,515652077640457 
850	 0,515370044303352 
851	 0,514820609786946 
852	 0,514641671482462 
853	 0,514537510004844 
854	 0,514436726067117 
855	 0,514980066213874 
856	 0,515574074532833 
857	 0,515347529625412 
858	 0,514774903241178 
859	 0,514175922880187 
860	 0,514109103456047 
861	 0,51425490432611 
862	 0,514380478776608 
863	 0,514165502413377 
864	 0,513853011222702 
865	 0,513807133980069 
866	 0,514091756071169 
867	 0,514516919320331 
868	 0,514446804973485 
869	 0,514515928425096 
870	 0,514881461208121 
871	 0,514502738334691 
872	 0,51413050484538 
873	 0,514727947837109 
874	 0,514881210169654 
875	 0,51459986268642 
876	 0,514810927587554 
877	 0,515269038752142 
878	 0,515686938104152 
879	 0,514959175880617 
880	 0,514414424601092 
881	 0,515454333518955 
882	 0,515611966250683 
883	 0,515049104697739 
884	 0,515553966211441 
885	 0,51600407902347 
886	 0,516041969544364 
887	 0,515992702186041 
888	 0,515759288840157 
889	 0,515302206729827 
890	 0,515471606678617 
891	 0,515867488718003 
892	 0,515248261817177 
893	 0,514852308606162 
894	 0,514999436541523 
895	 0,515162343530013 
896	 0,515347618700797 
897	 0,515544856124687 
898	 0,51556954920524 
899	 0,515458208262223 
900	 0,515344004181944 
901	 0,514961483352012 
902	 0,514424544517252 
903	 0,514384956014874 
904	 0,514426140795372 
905	 0,514342156391786 
906	 0,514711412334424 
907	 0,515150134976776 
908	 0,515042490603773 
909	 0,514402630742861 
910	 0,51370684150781 
911	 0,514406382332635 
912	 0,515055024990756 
913	 0,514997096879115 
914	 0,514930798318608 
915	 0,514609648115827 
916	 0,513784607444956 
917	 0,514086998464481 
918	 0,514783376538319 
919	 0,513038534047186 
920	 0,512136685069292 
921	 0,512890243166961 
922	 0,513180544304238 
923	 0,513420457047943 
924	 0,51392081745721 
925	 0,513640899193192 
926	 0,512900868107082 
927	 0,512577371236485 
928	 0,511857817877412 
929	 0,510918630914947 
930	 0,511179142288591 
931	 0,511406454430056 
932	 0,510879222333794 
933	 0,510052528681046 
934	 0,509466446660549 
935	 0,509713291582459 
936	 0,510551546035956 
937	 0,511168048212534 
938	 0,509562216055883 
939	 0,507786627250193 
940	 0,506723358547963 
941	 0,50630391273287 
942	 0,505929710545399 
943	 0,505135575837299 
944	 0,504982335562231 
945	 0,505034267412542 
946	 0,504154872725098 
947	 0,504246735073005 
948	 0,504773065854064 
949	 0,501702283230989 
950	 0,499073261997921 
951	 0,49887402451095 
952	 0,497402445087328 
953	 0,496157439278064 
954	 0,497183074592298 
955	 0,496112680072594 
956	 0,493688626719675 
957	 0,494281792560661 
958	 0,494489577419989 
959	 0,493455690515862 
960	 0,492777443421164 
961	 0,492556631531536 
962	 0,492623044544388 
963	 0,491039772227555 
964	 0,489341236186714 
965	 0,490220846323178 
966	 0,491369300590363 
967	 0,491755046117471 
968	 0,490145824597313 
969	 0,488639827952811 
970	 0,488339787214793 
971	 0,48930635410798 
972	 0,490714993163629 
973	 0,491667542508452 
974	 0,491439616278872 
975	 0,490381339657758 
976	 0,489356350698894 
977	 0,489083970527868 
978	 0,489446665630304 
979	 0,488903799757371 
980	 0,489808779317353 
981	 0,492491360185247 
982	 0,491780824159215 
983	 0,49028886451019 
984	 0,490938181705754 
985	 0,490692558375328 
986	 0,490044304298489 
987	 0,490928270692903 
988	 0,4916611589196 
989	 0,491612397148527 
990	 0,490234006839092 
991	 0,489920540220187 
992	 0,491509201375985 
993	 0,491693233594109 
994	 0,491424677779262 
995	 0,491986592546725 
996	 0,493226869961836 
997	 0,494584268075384 
998	 0,495018608693709 
999	 0,494822611088407 
1000	 0,494189393203309 
1001	 0,49329682756814 
1002	 0,493434968770146 
1003	 0,494856513643528 
1004	 0,494846490111011 
1005	 0,494702196447845 
1006	 0,495893053503592 
1007	 0,498237676618286 
1008	 0,500232530289856 
1009	 0,499425612488815 
1010	 0,497342147134713 
1011	 0,495239668225033 
1012	 0,495229781612836 
1013	 0,496410717556896 
1014	 0,497991556122473 
1015	 0,498302841567992 
1016	 0,498566101410843 
1017	 0,499666596693133 
1018	 0,499047764073402 
1019	 0,498350399834049 
1020	 0,500424370325437 
1021	 0,501733110110068 
1022	 0,501673548818133 
1023	 0,500889880836282 
1024	 0,501559467711542 
1025	 0,503585626938671 
1026	 0,502641986888119 
1027	 0,501074789992393 
1028	 0,500711219887642 
1029	 0,502236153052253 
1030	 0,503569489264627 
1031	 0,502329051580008 
1032	 0,500867290301503 
1033	 0,500688480622468 
1034	 0,50365873881846 
1035	 0,506962923748343 
1036	 0,508685395870169 
1037	 0,505855148353037 
1038	 0,50207337260934 
1039	 0,500046460690937 
1040	 0,502925105617474 
1041	 0,507229372398283 
1042	 0,509383951279817 
1043	 0,507026028589722 
1044	 0,504573999151172 
1045	 0,508097976921408 
1046	 0,508739872137841 
1047	 0,506836491851198 
1048	 0,507788950167798 
1049	 0,50760798947394 
1050	 0,505653097788377 
1051	 0,504437259103038 
1052	 0,5005817246143 
1053	 0,495845015725035 
1054	 0,508626307415643 
1055	 0,515451680644831 
1056	 0,498754559519132 
1057	 0,498963822422958 
1058	 0,505533087612226 
1059	 0,496659252248392 
1060	 0,496650588032548 
1061	 0,505172055761344 
1062	 0,509144160357731 
1063	 0,514149755084122 
1064	 0,517690439467492 
1065	 0,50529491067469 
1066	 0,498048820107837 
1067	 0,502901396127601 
1068	 0,499009566863464 
1069	 0,493981011154465 
1070	 0,49400146464077 
1071	 0,494642462954483 
1072	 0,501512860737687 
1073	 0,519697081031712 
1074	 0,51481349103115 
1075	 0,50097325993679 
