Wavelength	SCO-GRA00083.asd
325	 0,166626882669803 
326	 0,215063942975445 
327	 0,292615511974522 
328	 0,371736296331735 
329	 0,239241850283782 
330	 8,17010788370316E-02 
331	 0,162222938707703 
332	 0,177225797027914 
333	 0,10881764387148 
334	-3,49963033856936E-02 
335	-6,70436489186118E-02 
336	 1,33696671945149E-02 
337	 8,44355170052499E-02 
338	 0,116258859498772 
339	 7,05286526499479E-02 
340	 7,91754256630815E-02 
341	 0,114869637977889 
342	 8,40049987621689E-02 
343	 1,58063978206621E-02 
344	-4,67362504456764E-02 
345	 2,52045983455103E-02 
346	 7,85669493142842E-02 
347	 6,03126282487519E-03 
348	-5,58480277637583E-02 
349	-7,36002105540203E-02 
350	-2,29585826697451E-02 
351	 2,99429294554038E-02 
352	 5,36370936044927E-02 
353	 3,25422156449137E-02 
354	 5,34252936777731E-03 
355	 9,16501381680114E-03 
356	 4,91677914670416E-03 
357	-5,48440028740198E-03 
358	 8,64374458485788E-03 
359	 0,032655571220387 
360	 5,62131547612628E-02 
361	 7,13752410847831E-02 
362	 6,78276940827486E-02 
363	 3,38733547055603E-02 
364	 2,30072240433216E-02 
365	 3,56256038788167E-02 
366	 3,06800597358717E-02 
367	 2,30999010690308E-02 
368	 2,30802835586883E-02 
369	 2,93742249050234E-02 
370	 3,36436671454299E-02 
371	 2,19710681448586E-02 
372	 3,49812560364343E-02 
373	 6,49662751031624E-02 
374	 3,57582685587498E-02 
375	 1,78271833524344E-02 
376	 6,32022772323473E-02 
377	 7,08507903682309E-02 
378	 4,71406872080231E-02 
379	 3,53536613046461E-02 
380	 1,64054220853935E-02 
381	-7,44131235398221E-03 
382	 1,10471139762068E-03 
383	 1,55398879913993E-02 
384	 1,30792311172229E-02 
385	 0,016609025677694 
386	 2,74443876667368E-02 
387	 4,15010119962971E-02 
388	 4,05122704037501E-02 
389	 2,31161818121284E-02 
390	 2,45979812756459E-02 
391	 3,29622017164581E-02 
392	 3,07155667862533E-02 
393	 2,80912863309121E-02 
394	 2,61795833963257E-02 
395	 2,13725263417313E-02 
396	 1,86651536121897E-02 
397	 2,00570921223506E-02 
398	 1,68760937146276E-02 
399	 1,76549347742816E-02 
400	 0,037168376239115 
401	 3,89376353301664E-02 
402	 2,25299091673915E-02 
403	 0,021443442608021 
404	 2,69539409907783E-02 
405	 3,11928338701545E-02 
406	 2,47277793402214E-02 
407	 1,64047311201825E-02 
408	 2,68928951075543E-02 
409	 2,60622389480669E-02 
410	 1,15049900790348E-02 
411	 1,55770473358035E-02 
412	 2,48802036516307E-02 
413	 2,55532817415304E-02 
414	 2,69550602911569E-02 
415	 2,85911599048551E-02 
416	 2,47730886760064E-02 
417	 2,37820565815646E-02 
418	 2,71111587444393E-02 
419	 2,09248322930019E-02 
420	 1,47590856544834E-02 
421	 2,20553590120435E-02 
422	 2,56476015416213E-02 
423	 2,32398323199283E-02 
424	 1,99279141137545E-02 
425	 1,93402207250484E-02 
426	 2,30669018831366E-02 
427	 2,41649353168398E-02 
428	 2,32374490076489E-02 
429	 2,31721716856362E-02 
430	 2,27671553365096E-02 
431	 0,020932103943087 
432	 0,012947516466378 
433	 9,94699617431392E-03 
434	 2,07459357229524E-02 
435	 2,65098652611992E-02 
436	 2,47673724751818E-02 
437	 1,80519952623154E-02 
438	 1,44542088407539E-02 
439	 0,016831162507941 
440	 1,82572679542561E-02 
441	 1,81240452778977E-02 
442	 1,65216450602172E-02 
443	 1,66624280886079E-02 
444	 1,81175872336396E-02 
445	 0,016737728939224 
446	 1,42197063243439E-02 
447	 1,23073604456464E-02 
448	 1,62666613589665E-02 
449	 2,24131546645604E-02 
450	 2,29681102469292E-02 
451	 2,29544410530971E-02 
452	 2,33396147330106E-02 
453	 2,13682543066149E-02 
454	 2,01545062942142E-02 
455	 2,23526483767369E-02 
456	 2,19917657589027E-02 
457	 0,019759108348075 
458	 2,06650520069015E-02 
459	 2,12821443913269E-02 
460	 2,04647588316589E-02 
461	 0,020896501774628 
462	 2,04089391201009E-02 
463	 1,57960789225558E-02 
464	 0,017065730725602 
465	 2,34594780334608E-02 
466	 2,37380710129726E-02 
467	 0,022003779733095 
468	 2,10994093004595E-02 
469	 2,09140237288619E-02 
470	 2,04157983063163E-02 
471	 1,70109439853871E-02 
472	 1,70522882815985E-02 
473	 2,09996527922108E-02 
474	 2,03581237605958E-02 
475	 1,93471772126931E-02 
476	 2,22675024961994E-02 
477	 2,20021422760971E-02 
478	 1,92437010763967E-02 
479	 1,96041070451327E-02 
480	 2,13875207621231E-02 
481	 0,023466280842647 
482	 2,38973323836549E-02 
483	 2,29531944808794E-02 
484	 0,021374653648692 
485	 2,02317548367337E-02 
486	 1,97968117493546E-02 
487	 1,94796355548213E-02 
488	 1,94664341653388E-02 
489	 1,98205121695667E-02 
490	 1,97794852549931E-02 
491	 1,91600817494262E-02 
492	 1,76263540354372E-02 
493	 0,017190941180567 
494	 1,83072447531373E-02 
495	 1,91057807401833E-02 
496	 1,91407298645014E-02 
497	 0,0181371519358 
498	 1,78511261793673E-02 
499	 1,85013170781248E-02 
500	 1,94425408179416E-02 
501	 1,99762300730563E-02 
502	 1,96526144656962E-02 
503	 1,83403711889104E-02 
504	 1,73054119481504E-02 
505	 1,86997869258058E-02 
506	 2,02272959816402E-02 
507	 2,08510757494226E-02 
508	 1,95704570126837E-02 
509	 1,80583651089127E-02 
510	 1,78897254894746E-02 
511	 1,88974284721222E-02 
512	 2,03452107205872E-02 
513	 2,05476131744968E-02 
514	 2,03487685238677E-02 
515	 2,01450461484378E-02 
516	 0,020004019589682 
517	 2,00716990527819E-02 
518	 2,05186267182962E-02 
519	 2,08535477113322E-02 
520	 2,08822168528957E-02 
521	 2,06069751828828E-02 
522	 1,96646006716635E-02 
523	 1,80383857008925E-02 
524	 1,83262627060609E-02 
525	 0,019785504090916 
526	 1,98364296806455E-02 
527	 2,00567230691581E-02 
528	 2,06031486177554E-02 
529	 1,95224135023053E-02 
530	 1,85315774342885E-02 
531	 1,96806321280415E-02 
532	 2,02546924437169E-02 
533	 1,99769009272702E-02 
534	 2,00729573931493E-02 
535	 2,02164073531631E-02 
536	 2,01974331370281E-02 
537	 1,98033775939302E-02 
538	 1,94156935273391E-02 
539	 1,97724389117597E-02 
540	 2,02066808746873E-02 
541	 2,04062863874967E-02 
542	 2,00526712963837E-02 
543	 1,95944854711336E-02 
544	 1,94760514668109E-02 
545	 0,019266515509604 
546	 1,91945228647596E-02 
547	 2,02556822675292E-02 
548	 2,07467635144293E-02 
549	 1,99691800171369E-02 
550	 1,94445685888835E-02 
551	 1,94283924282515E-02 
552	 2,00476482288614E-02 
553	 0,020128079895121 
554	 1,95972087365307E-02 
555	 1,96558852034863E-02 
556	 2,01031720035793E-02 
557	 2,06587023325962E-02 
558	 2,01827606755437E-02 
559	 1,92881691849599E-02 
560	 2,01934187749748E-02 
561	 2,02526446106728E-02 
562	 1,89193332477158E-02 
563	 1,98871428916892E-02 
564	 2,11497966905976E-02 
565	 1,96949649529001E-02 
566	 1,82988811945469E-02 
567	 1,78130115492021E-02 
568	 1,84453973169856E-02 
569	 0,019390301280858 
570	 1,99919931254737E-02 
571	 1,99953644343847E-02 
572	 1,97236876472297E-02 
573	 1,99052790578678E-02 
574	 2,05980608226432E-02 
575	 2,15589885646094E-02 
576	 2,13188751423914E-02 
577	 2,08502975462864E-02 
578	 2,13423848930694E-02 
579	 2,18752688997197E-02 
580	 2,21538248904646E-02 
581	 2,20380321923615E-02 
582	 2,13905637068667E-02 
583	 2,04190014665576E-02 
584	 2,12343522467793E-02 
585	 2,28011847094107E-02 
586	 2,28609098524941E-02 
587	 2,27050523986792E-02 
588	 2,26830676393611E-02 
589	 0,022582400132856 
590	 2,26896381244799E-02 
591	 2,32383789122654E-02 
592	 2,35992127371659E-02 
593	 0,023587627365249 
594	 2,30198785976123E-02 
595	 2,27264425523389E-02 
596	 2,30434744582949E-02 
597	 2,32165991078689E-02 
598	 2,31687312396725E-02 
599	 2,29065912542259E-02 
600	 2,29519117692513E-02 
601	 2,31897157549867E-02 
602	 2,24874130657485E-02 
603	 2,19549328736297E-02 
604	 2,24303350096277E-02 
605	 2,28228129335035E-02 
606	 2,28491614977238E-02 
607	 2,22238728571117E-02 
608	 2,20166441793879E-02 
609	 2,24607996105588E-02 
610	 2,21375857451435E-02 
611	 2,17813347950496E-02 
612	 2,24298258801066E-02 
613	 2,20996096272208E-02 
614	 2,08619217262181E-02 
615	 2,06233658570848E-02 
616	 2,04944997934155E-02 
617	 2,00260312565062E-02 
618	 2,05113619145588E-02 
619	 2,14014876600257E-02 
620	 2,12311949940584E-02 
621	 2,16168720505422E-02 
622	 2,25810504071627E-02 
623	 2,16565842186215E-02 
624	 2,03683939399882E-02 
625	 2,04047551563743E-02 
626	 0,020802827040834 
627	 2,12334617285706E-02 
628	 0,021409837604107 
629	 2,12042493151802E-02 
630	 2,07378682828645E-02 
631	 2,13869178179484E-02 
632	 2,24819067116134E-02 
633	 2,27050219794883E-02 
634	 2,28477906318179E-02 
635	 2,30080824998362E-02 
636	 2,26806745079502E-02 
637	 2,23799248834357E-02 
638	 2,25355027087302E-02 
639	 2,26084329026369E-02 
640	 2,27489866342807E-02 
641	 2,37048565307895E-02 
642	 2,41059356030052E-02 
643	 0,023626077716914 
644	 0,024022900909744 
645	 0,024764282850216 
646	 2,49618022595844E-02 
647	 2,44491547384013E-02 
648	 2,36804679556178E-02 
649	 2,44373845758049E-02 
650	 2,50090680011295E-02 
651	 2,43390630556616E-02 
652	 0,023954942259319 
653	 2,39985110626947E-02 
654	 0,024350740655878 
655	 2,41971155660422E-02 
656	 0,02339376378256 
657	 2,27840283108066E-02 
658	 2,25126615881299E-02 
659	 2,26387695573534E-02 
660	 2,23572001259806E-02 
661	 0,021698599397536 
662	 2,12381927006036E-02 
663	 2,11446229912447E-02 
664	 2,14164379762936E-02 
665	 2,12686084264796E-02 
666	 0,020927802656317 
667	 2,09141918235971E-02 
668	 2,06397350844595E-02 
669	 2,00929584049437E-02 
670	 1,98011096257977E-02 
671	 1,98930779245653E-02 
672	 2,03705597406385E-02 
673	 2,00534376060931E-02 
674	 1,94040839121316E-02 
675	 2,01380957240945E-02 
676	 2,04370640516229E-02 
677	 1,98622465527479E-02 
678	 1,98840176957451E-02 
679	 2,04411495520115E-02 
680	 2,13017368408429E-02 
681	 2,15975534773591E-02 
682	 2,13843118544538E-02 
683	 2,16355740014802E-02 
684	 2,18183932265169E-02 
685	 2,16777087726115E-02 
686	 2,17540007738863E-02 
687	 2,20382373487104E-02 
688	 0,022351689626091 
689	 0,023033068440082 
690	 2,40194660110616E-02 
691	 2,45321413149141E-02 
692	 2,53217965415189E-02 
693	 2,70452949487037E-02 
694	 2,87987050671855E-02 
695	 3,06811997401605E-02 
696	 3,33663431196691E-02 
697	 3,63391890968023E-02 
698	 3,95575998713371E-02 
699	 4,39941943729498E-02 
700	 4,90132783864447E-02 
701	 5,36960507140708E-02 
702	 5,92107187554536E-02 
703	 6,55481720611804E-02 
704	 7,16498437267664E-02 
705	 7,82742878452818E-02 
706	 8,57456029835009E-02 
707	 9,24977644553588E-02 
708	 0,098974716862674 
709	 0,106453211640023 
710	 0,113745462041112 
711	 0,120543880565869 
712	 0,127256109549144 
713	 0,133988560809423 
714	 0,1407899859094 
715	 0,1470970232402 
716	 0,152990913307124 
717	 0,159016461813721 
718	 0,1648700629993 
719	 0,170351721186998 
720	 0,175118687559014 
721	 0,179376429431264 
722	 0,183437956424328 
723	 0,187626917380791 
724	 0,191750566280685 
725	 0,194812247650095 
726	 0,197767242993506 
727	 0,201109557682407 
728	 0,203687623890125 
729	 0,205644598491936 
730	 0,207479881408604 
731	 0,209391605860744 
732	 0,211470159243669 
733	 0,213702686135613 
734	 0,215593269617856 
735	 0,216762173150491 
736	 0,218153839176777 
737	 0,219673259504303 
738	 0,220610587873157 
739	 0,221480816871698 
740	 0,222476465678983 
741	 0,223511369419699 
742	 0,224466057307213 
743	 0,225214737145055 
744	 0,225942965374729 
745	 0,226681739710441 
746	 0,227423516316251 
747	 0,227929394915845 
748	 0,228142994936733 
749	 0,228701515650947 
750	 0,229289145133684 
751	 0,229294856770392 
752	 0,229526755659849 
753	 0,230088385496247 
754	 0,23048443352421 
755	 0,23071587388756 
756	 0,230842431081462 
757	 0,231402354214585 
758	 0,232169927011653 
759	 0,232562129437051 
760	 0,232603707979237 
761	 0,232389923206876 
762	 0,232336013880845 
763	 0,232542374122142 
764	 0,233034967699844 
765	 0,233076445466216 
766	 0,232865625055131 
767	 0,23331955075495 
768	 0,233737958469814 
769	 0,233930486726115 
770	 0,234502668211213 
771	 0,235053209455283 
772	 0,235067422625458 
773	 0,234897944661627 
774	 0,234712057360387 
775	 0,234714807773683 
776	 0,234798752208629 
777	 0,234910878062646 
778	 0,235086154235904 
779	 0,235269190371517 
780	 0,235378153887977 
781	 0,235567912138384 
782	 0,235832267141598 
783	 0,236018631435314 
784	 0,236118762236928 
785	 0,236123600767599 
786	 0,23600184099396 
787	 0,235880227655194 
788	 0,235947392580916 
789	 0,236486669434466 
790	 0,23727751177398 
791	 0,237048610511398 
792	 0,236870988718012 
793	 0,23751986412537 
794	 0,2373980151515 
795	 0,23682288712422 
796	 0,237030904099024 
797	 0,237206988187925 
798	 0,237241832512131 
799	 0,237937031263203 
800	 0,238485426085985 
801	 0,238140245061763 
802	 0,237763695089376 
803	 0,237531479516579 
804	 0,237359172906182 
805	 0,237640239292593 
806	 0,238287808522126 
807	 0,238053008686248 
808	 0,237550187348672 
809	 0,237543758261475 
810	 0,238173008898755 
811	 0,238941188390348 
812	 0,238364856767256 
813	 0,23790198130021 
814	 0,238108652043339 
815	 0,238214350730946 
816	 0,238284544938802 
817	 0,238469909808326 
818	 0,238869188381943 
819	 0,23928846671287 
820	 0,239107001658253 
821	 0,238852257879368 
822	 0,23884226195532 
823	 0,239247508437609 
824	 0,239896520620191 
825	 0,240535719456476 
826	 0,240283747490848 
827	 0,239464181229773 
828	 0,239829002561681 
829	 0,240117062530805 
830	 0,239769842552617 
831	 0,239691011295895 
832	 0,239782029232366 
833	 0,239780144689056 
834	 0,240016529849149 
835	 0,240353643862553 
836	 0,240063365167569 
837	 0,240008105021156 
838	 0,240532555063292 
839	 0,240491772686436 
840	 0,240259530221876 
841	 0,240536775210376 
842	 0,240387634693409 
843	 0,239954870677328 
844	 0,24051857621194 
845	 0,240931696683586 
846	 0,240628179858391 
847	 0,24046056298939 
848	 0,240320746225978 
849	 0,239922416508444 
850	 0,240005172667573 
851	 0,240498980414373 
852	 0,240577057677393 
853	 0,240444062052439 
854	 0,240219165382519 
855	 0,239966958890145 
856	 0,239786322404378 
857	 0,239787101302675 
858	 0,239353845462803 
859	 0,238829975235241 
860	 0,239911094799277 
861	 0,2404527812287 
862	 0,239554337045725 
863	 0,239305286941215 
864	 0,239459236763611 
865	 0,23940914796636 
866	 0,239738607588291 
867	 0,240272143988508 
868	 0,240151841850881 
869	 0,239839297372128 
870	 0,23960055855239 
871	 0,239577574857514 
872	 0,239726450335232 
873	 0,239969445028882 
874	 0,240546777401949 
875	 0,241076293278976 
876	 0,240274467153951 
877	 0,239957232414768 
878	 0,240745399830618 
879	 0,241331245252902 
880	 0,241540223209341 
881	 0,241327568878387 
882	 0,241236521486505 
883	 0,241321634663636 
884	 0,241394257460201 
885	 0,241384409921003 
886	 0,241292478741457 
887	 0,241254756563411 
888	 0,241508677270505 
889	 0,242165809516913 
890	 0,241859316940334 
891	 0,241128835463917 
892	 0,241745775029037 
893	 0,241947087292244 
894	 0,241424857865496 
895	 0,241414189524559 
896	 0,241802705348178 
897	 0,242421964981135 
898	 0,242963800947913 
899	 0,243091491705098 
900	 0,242325572683937 
901	 0,241800196262773 
902	 0,241969550892469 
903	 0,24323941953531 
904	 0,243513043984423 
905	 0,241821531772753 
906	 0,241479263251664 
907	 0,241974197060033 
908	 0,241975597865182 
909	 0,241434027984799 
910	 0,240734039623262 
911	 0,241239283799612 
912	 0,241545181879515 
913	 0,241176970985431 
914	 0,241662451195361 
915	 0,242193377440194 
916	 0,241773099303819 
917	 0,2411505645792 
918	 0,240652783003072 
919	 0,240799650922784 
920	 0,240124995510942 
921	 0,238674738539649 
922	 0,239210830278221 
923	 0,240253297086453 
924	 0,240409377296837 
925	 0,23981344629233 
926	 0,23872953261884 
927	 0,237608077994269 
928	 0,237018856103619 
929	 0,236885034630279 
930	 0,236140031463968 
931	 0,235587037515703 
932	 0,235535728610419 
933	 0,234657500909278 
934	 0,233695427860851 
935	 0,233742564093973 
936	 0,233864234065545 
937	 0,233425866105324 
938	 0,231038647613403 
939	 0,230096789223992 
940	 0,231268772429873 
941	 0,23058025643194 
942	 0,228891448980157 
943	 0,227310466488757 
944	 0,227149420171511 
945	 0,227190443561226 
946	 0,224764355062679 
947	 0,222465782861589 
948	 0,220957593235892 
949	 0,219545849587514 
950	 0,218771666823678 
951	 0,218680191535792 
952	 0,217698163233561 
953	 0,21609771440038 
954	 0,214476602201383 
955	 0,213753835565286 
956	 0,213430082402492 
957	 0,211614416456157 
958	 0,21027503174931 
959	 0,209752145182251 
960	 0,208073527331396 
961	 0,207397832472282 
962	 0,208904614829801 
963	 0,207890577490757 
964	 0,205532193113463 
965	 0,204656136717522 
966	 0,203866511228732 
967	 0,203128572675994 
968	 0,203180899405593 
969	 0,203639071902212 
970	 0,204088858071593 
971	 0,203274270588399 
972	 0,203117362721421 
973	 0,205055481172145 
974	 0,204359258174285 
975	 0,202449183653565 
976	 0,203265965713395 
977	 0,204157928877787 
978	 0,204212035272848 
979	 0,202750190436973 
980	 0,201864377523931 
981	 0,202656555754259 
982	 0,20459052360074 
983	 0,206261331316179 
984	 0,206312339320454 
985	 0,205538082978612 
986	 0,204584443808026 
987	 0,20433904516804 
988	 0,204267655548596 
989	 0,204280689585384 
990	 0,204482092039952 
991	 0,20506105266066 
992	 0,206280635094368 
993	 0,209467133969768 
994	 0,21126549497473 
995	 0,208495885210432 
996	 0,206296569264908 
997	 0,206162060452072 
998	 0,20893451088773 
999	 0,211487471804049 
1000	 0,212734232059244 
1001	 0,21305826835291 
1002	 0,211996419134495 
1003	 0,210044657171102 
1004	 0,211024050247846 
1005	 0,212240918873248 
1006	 0,211191515791724 
1007	 0,213906844471934 
1008	 0,216475545377239 
1009	 0,210362907223077 
1010	 0,210167907150161 
1011	 0,216049500449622 
1012	 0,215072315978588 
1013	 0,213388450342766 
1014	 0,213351240320423 
1015	 0,212519980326875 
1016	 0,214272451811035 
1017	 0,2204625236549 
1018	 0,221095947766896 
1019	 0,219250041170705 
1020	 0,221693524920672 
1021	 0,223414541176399 
1022	 0,222686247214216 
1023	 0,217169170900944 
1024	 0,217280974085818 
1025	 0,224100978522115 
1026	 0,22450524891934 
1027	 0,221754634324314 
1028	 0,21924474450085 
1029	 0,22251389530915 
1030	 0,227009601613546 
1031	 0,226803843589742 
1032	 0,22697627718311 
1033	 0,227947277753939 
1034	 0,228710822799912 
1035	 0,227547382053923 
1036	 0,225536210766104 
1037	 0,228367275265762 
1038	 0,230222113342294 
1039	 0,22867369840157 
1040	 0,225245058417224 
1041	 0,226200063591308 
1042	 0,234879718412346 
1043	 0,237796796060999 
1044	 0,234179713068526 
1045	 0,2262776257613 
1046	 0,224607339004937 
1047	 0,229220306825551 
1048	 0,233899403030535 
1049	 0,236005250189974 
1050	 0,23525959926511 
1051	 0,234966131473732 
1052	 0,236672615476251 
1053	 0,239941873169211 
1054	 0,237684468117252 
1055	 0,235775660964847 
1056	 0,238357287315764 
1057	 0,232697909457037 
1058	 0,228149234961224 
1059	 0,23909215853391 
1060	 0,237673633241517 
1061	 0,225743818441217 
1062	 0,219982339351226 
1063	 0,229504170436039 
1064	 0,247099123371451 
1065	 0,234901601109967 
1066	 0,228753396552085 
1067	 0,241333198768734 
1068	 0,251048503639266 
1069	 0,253492427396678 
1070	 0,246090059676692 
1071	 0,233945060049991 
1072	 0,228511586590238 
1073	 0,23995823088033 
1074	 0,240224411125839 
1075	 0,233461229229823 
