Wavelength	SCO-GRA00711.asd
325	 0,341185721025318 
326	 0,365126942741831 
327	 0,196578121702914 
328	-0,135926409128099 
329	-0,122674796311859 
330	 4,40531646047073E-02 
331	 0,216382996388393 
332	 0,201189324694799 
333	 8,94631844557603E-02 
334	 0,100860509326011 
335	 9,61245963884786E-02 
336	 5,46968358475301E-02 
337	 9,35748834634107E-02 
338	 0,121094381065367 
339	 6,03841779050187E-02 
340	 1,29429274230216E-02 
341	-1,07635645061801E-04 
342	 5,50758086209879E-02 
343	 4,86955158280026E-02 
344	-2,48824537374672E-02 
345	 3,97531100853681E-02 
346	 0,102254413633245 
347	 3,95967075589824E-02 
348	 2,77004689473219E-02 
349	 6,52393438484356E-02 
350	 4,47549659685933E-02 
351	 3,47329972480527E-02 
352	 5,09733763811209E-02 
353	 5,07563559353946E-02 
354	 3,47348245417287E-02 
355	 6,84883289704108E-03 
356	 1,39685480264748E-02 
357	 4,75984065592565E-02 
358	 5,98333390953047E-02 
359	 7,24069453329412E-02 
360	 8,62116289389775E-02 
361	 3,30932750513031E-02 
362	-1,85187575155473E-02 
363	 2,56269207112765E-02 
364	 5,54135327793725E-02 
365	 5,05332101329669E-02 
366	 4,54374937048678E-02 
367	 3,92826035555573E-02 
368	 3,32889987842244E-02 
369	 3,93764971318299E-02 
370	 4,89300139825955E-02 
371	 4,56556961258622E-02 
372	 4,09760960659046E-02 
373	 0,038018709688416 
374	 3,56430640601722E-02 
375	 3,19004940928919E-02 
376	 2,59418358289277E-02 
377	 2,90949592952895E-02 
378	 3,97756129188648E-02 
379	 5,29265180458908E-02 
380	 5,34434845229938E-02 
381	 4,07952647514768E-02 
382	 4,09616489486665E-02 
383	 3,96457687559481E-02 
384	 2,33243349149871E-02 
385	 2,19397778959077E-02 
386	 3,17639203784214E-02 
387	 3,10743505068824E-02 
388	 3,25984356592339E-02 
389	 3,76836534489558E-02 
390	 2,69259559061653E-02 
391	 0,017103807975994 
392	 3,00783002336622E-02 
393	 4,02680655872287E-02 
394	 4,30267858607763E-02 
395	 4,40916458226994E-02 
396	 4,44640791134702E-02 
397	 4,38971684784742E-02 
398	 3,46176564251367E-02 
399	 2,56669067296016E-02 
400	 3,15836673729029E-02 
401	 2,73890097051502E-02 
402	 1,58078085769791E-02 
403	 3,27815810760155E-02 
404	 4,23242543944703E-02 
405	 2,25828588006442E-02 
406	 1,23117601800311E-02 
407	 1,20376714115303E-02 
408	 8,89322128024402E-03 
409	 1,17015114318254E-02 
410	 1,98163459582704E-02 
411	 2,10097014105299E-02 
412	 2,06444740972659E-02 
413	 2,39498616312148E-02 
414	 2,47363892676082E-02 
415	 2,24454580430922E-02 
416	 1,73700072032296E-02 
417	 1,64688117227378E-02 
418	 2,12642591787979E-02 
419	 2,10633837092313E-02 
420	 1,94262736373701E-02 
421	 2,19311912650974E-02 
422	 2,40320299830796E-02 
423	 2,34947881144285E-02 
424	 1,57855502276665E-02 
425	 1,18288362652506E-02 
426	 1,74358869527038E-02 
427	 2,04504492283137E-02 
428	 2,03722057878519E-02 
429	 1,92097924023895E-02 
430	 1,91629189081526E-02 
431	 2,02176551186039E-02 
432	 1,84756386782204E-02 
433	 1,68053925695021E-02 
434	 1,78458858320531E-02 
435	 2,14194986946945E-02 
436	 2,40395263760879E-02 
437	 1,66264836534377E-02 
438	 1,19507563128427E-02 
439	 1,48037138821831E-02 
440	 1,96612677500518E-02 
441	 2,29784561852253E-02 
442	 2,11689510406225E-02 
443	 1,96400311073245E-02 
444	 1,95462307463828E-02 
445	 0,019803052269134 
446	 1,94937371691749E-02 
447	 1,82792810993859E-02 
448	 1,88838535998168E-02 
449	 1,97033516742269E-02 
450	 1,70911832127557E-02 
451	 1,44120965896951E-02 
452	 1,32575603502866E-02 
453	 1,50613285504588E-02 
454	 1,80756641624374E-02 
455	 2,04558684724213E-02 
456	 1,96210319486222E-02 
457	 1,72075470540209E-02 
458	 1,92211491080186E-02 
459	 1,99124464726354E-02 
460	 1,73256853158945E-02 
461	 1,51154465785828E-02 
462	 1,47957952826348E-02 
463	 1,77944816515775E-02 
464	 1,90169587964306E-02 
465	 1,76812607055083E-02 
466	 1,59251892767942E-02 
467	 1,55370996471094E-02 
468	 1,74229065912727E-02 
469	 1,80127373946945E-02 
470	 1,77885006814748E-02 
471	 1,87969720631507E-02 
472	 2,02157874287064E-02 
473	 2,12528185753277E-02 
474	 1,97023275117947E-02 
475	 1,71245125538485E-02 
476	 1,51692361677794E-02 
477	 1,34367588501949E-02 
478	 1,29077828312641E-02 
479	 1,66093038663861E-02 
480	 1,87619444171571E-02 
481	 1,69802890724942E-02 
482	 1,56196016695015E-02 
483	 1,53443869107302E-02 
484	 1,63790199405276E-02 
485	 1,64465580988449E-02 
486	 1,56853743102936E-02 
487	 1,74681913181969E-02 
488	 1,84171841901845E-02 
489	 0,016254622380761 
490	 1,54013117992223E-02 
491	 1,61257003203277E-02 
492	 1,76297223671062E-02 
493	 1,75799467644645E-02 
494	 1,55161381892392E-02 
495	 1,40297732954823E-02 
496	 1,40869073641477E-02 
497	 1,64254241775378E-02 
498	 0,018487772353695 
499	 1,90469322678372E-02 
500	 1,63052492467503E-02 
501	 1,47065834057374E-02 
502	 1,63990674788746E-02 
503	 1,63006111598352E-02 
504	 1,51074371696294E-02 
505	 1,52050508514912E-02 
506	 1,51408168889119E-02 
507	 1,49969223640204E-02 
508	 1,70339843731287E-02 
509	 1,83976105379522E-02 
510	 1,66627639787178E-02 
511	 1,63154055654877E-02 
512	 1,72024705307136E-02 
513	 1,66285666038071E-02 
514	 1,57150015996134E-02 
515	 1,52625428448094E-02 
516	 1,72638333146137E-02 
517	 1,95039145042477E-02 
518	 1,87756571470122E-02 
519	 1,74656249799804E-02 
520	 1,65178965629215E-02 
521	 1,68181406859767E-02 
522	 1,72336498664666E-02 
523	 0,016993979583185 
524	 1,73381500783427E-02 
525	 1,79689473408079E-02 
526	 1,79103007214932E-02 
527	 0,017254764641447 
528	 1,63286534008169E-02 
529	 1,68216872902888E-02 
530	 1,71798937517169E-02 
531	 1,55467935224501E-02 
532	 0,014881636476121 
533	 1,55944131660364E-02 
534	 1,68439258743701E-02 
535	 1,73949286074285E-02 
536	 1,66480648920003E-02 
537	 1,64930341263744E-02 
538	 1,67498628797739E-02 
539	 1,65630580237719E-02 
540	 1,66154060233588E-02 
541	 1,68675479658971E-02 
542	 0,016142746478397 
543	 0,015563434366207 
544	 1,62233124041986E-02 
545	 1,68003404531269E-02 
546	 1,69034028686715E-02 
547	 1,61125094984047E-02 
548	 1,60809848686372E-02 
549	 1,73286646951481E-02 
550	 1,72325002261379E-02 
551	 1,64497850562897E-02 
552	 1,64470898623715E-02 
553	 1,67515654799137E-02 
554	 1,70279382092875E-02 
555	 1,63538443229587E-02 
556	 1,58332750877739E-02 
557	 0,016321009065386 
558	 1,63108533437236E-02 
559	 1,58394898769773E-02 
560	 1,56193532422346E-02 
561	 1,57836099417623E-02 
562	 0,016327135088461 
563	 1,67166166086038E-02 
564	 1,68594512192305E-02 
565	 1,67189627874661E-02 
566	 0,016374433159608 
567	 1,60630207472716E-02 
568	 1,65045844829736E-02 
569	 1,67568189632229E-02 
570	 1,62357115638085E-02 
571	 1,60657990899337E-02 
572	 1,64122016065636E-02 
573	 1,73588062598319E-02 
574	 1,75153680828787E-02 
575	 1,67308257753924E-02 
576	 1,71652068349218E-02 
577	 1,81320369936649E-02 
578	 1,86792257996459E-02 
579	 1,87368029794064E-02 
580	 1,85103143042253E-02 
581	 1,87653096633725E-02 
582	 1,90536932477745E-02 
583	 0,019072914269408 
584	 1,84151248043404E-02 
585	 1,80222728328284E-02 
586	 1,97040851202438E-02 
587	 2,06235584603574E-02 
588	 2,00965790569268E-02 
589	 0,019313864373145 
590	 1,90811629121753E-02 
591	 2,00157231064394E-02 
592	 2,02856581004401E-02 
593	 1,99629579378449E-02 
594	 2,04950497780072E-02 
595	 2,01381371755108E-02 
596	 1,85567348836465E-02 
597	 0,019202448829995 
598	 2,06172277336316E-02 
599	 2,00789557750413E-02 
600	 2,02447304603455E-02 
601	 2,12200244151441E-02 
602	 2,06312175477251E-02 
603	 1,95415142162851E-02 
604	 1,88855701890814E-02 
605	 1,88238542571884E-02 
606	 1,91321953092668E-02 
607	 0,019204445552978 
608	 1,90637502019688E-02 
609	 1,87657350065039E-02 
610	 1,86662136602794E-02 
611	 1,89528967925528E-02 
612	 1,98003860323931E-02 
613	 1,95881342641746E-02 
614	 0,018595804208531 
615	 1,92907895040626E-02 
616	 1,96305059984422E-02 
617	 1,84683061887068E-02 
618	 1,79576439147002E-02 
619	 1,80722013487626E-02 
620	 0,018086737202491 
621	 1,84985101799701E-02 
622	 1,91306826285192E-02 
623	 1,85457661592943E-02 
624	 1,77450448014669E-02 
625	 0,017824730926019 
626	 1,80964453543207E-02 
627	 1,84264046233245E-02 
628	 1,88880757469819E-02 
629	 1,92077287893644E-02 
630	 1,92464577870977E-02 
631	 1,91112346307632E-02 
632	 1,91990648317926E-02 
633	 2,01824720224504E-02 
634	 1,99729928550321E-02 
635	 1,86446215933969E-02 
636	 0,019211805136868 
637	 2,00670323119157E-02 
638	 1,98350342713199E-02 
639	 1,99534703453008E-02 
640	 2,06209890825254E-02 
641	 2,19672443927388E-02 
642	 0,021979079431616 
643	 2,02843705008384E-02 
644	 2,02087332071029E-02 
645	 2,10210475395241E-02 
646	 2,13569393247348E-02 
647	 2,15598107603685E-02 
648	 2,16407610062748E-02 
649	 2,15115172451351E-02 
650	 2,13612485948553E-02 
651	 2,13045536997483E-02 
652	 2,10923509933339E-02 
653	 2,08439061658614E-02 
654	 2,08667544427836E-02 
655	 2,09563821319873E-02 
656	 2,09412611336748E-02 
657	 2,04050349278037E-02 
658	 0,019726417135671 
659	 1,93101603475137E-02 
660	 1,85471468688523E-02 
661	 1,77341076111479E-02 
662	 1,80673941797273E-02 
663	 0,018429470434993 
664	 1,83012097809745E-02 
665	 1,84717020279424E-02 
666	 1,85530122496691E-02 
667	 1,78182609113707E-02 
668	 1,70690905192663E-02 
669	 1,66640211595369E-02 
670	 0,016997452635544 
671	 0,017180946724834 
672	 1,66032318577213E-02 
673	 1,69983898900697E-02 
674	 1,79965209339428E-02 
675	 1,79928036364501E-02 
676	 1,80345032507829E-02 
677	 1,83571412621511E-02 
678	 1,81099008854165E-02 
679	 1,78827429975581E-02 
680	 1,84306816577891E-02 
681	 1,84554148129979E-02 
682	 1,80640748533442E-02 
683	 1,86470723438488E-02 
684	 0,019112432491408 
685	 1,89095276595196E-02 
686	 1,91922923766046E-02 
687	 1,96741363205196E-02 
688	 0,019539647477714 
689	 1,97728887536433E-02 
690	 2,06782907511728E-02 
691	 2,21721051696667E-02 
692	 2,35726794512316E-02 
693	 2,43255409272145E-02 
694	 2,54447614406635E-02 
695	 2,71545385654936E-02 
696	 2,93888407903132E-02 
697	 0,032287847710979 
698	 3,57793614532976E-02 
699	 3,91193736515858E-02 
700	 4,27633775452466E-02 
701	 4,73717158259512E-02 
702	 5,20599311447875E-02 
703	 5,66409950556955E-02 
704	 6,13114498504144E-02 
705	 6,62653255578763E-02 
706	 7,15519642601508E-02 
707	 7,63466002877937E-02 
708	 8,10339017332346E-02 
709	 8,65953527609509E-02 
710	 9,19365415289204E-02 
711	 9,66800479026074E-02 
712	 0,100918115861304 
713	 0,105051428972988 
714	 0,109407312228607 
715	 0,113423540531534 
716	 0,117080449152771 
717	 0,120654153247867 
718	 0,12389870898876 
719	 0,126785450973419 
720	 0,129766848280292 
721	 0,132631327725389 
722	 0,135058479389955 
723	 0,13740121257783 
724	 0,139675216242961 
725	 0,14159707189928 
726	 0,143476764530692 
727	 0,145452498124151 
728	 0,146989281274423 
729	 0,148168812096248 
730	 0,149213589305458 
731	 0,150730221548151 
732	 0,152626509104273 
733	 0,153621291810931 
734	 0,154259366791379 
735	 0,155074124820246 
736	 0,156096195277899 
737	 0,157127144083105 
738	 0,15761917323317 
739	 0,15812784215233 
740	 0,158832778871515 
741	 0,159434132744902 
742	 0,16000509271102 
743	 0,160654940156713 
744	 0,161401238601192 
745	 0,162149311809588 
746	 0,162629958554966 
747	 0,16297864119004 
748	 0,163291680389997 
749	 0,163700143904036 
750	 0,164100712493372 
751	 0,164297584043893 
752	 0,164716846095577 
753	 0,165320242622615 
754	 0,165488409931503 
755	 0,165640668520647 
756	 0,166086558174083 
757	 0,166644190818431 
758	 0,167193583128813 
759	 0,167594563972545 
760	 0,16765855565037 
761	 0,167482174073027 
762	 0,167752610541286 
763	 0,168335889170321 
764	 0,169033736642299 
765	 0,169452963639611 
766	 0,169482288931083 
767	 0,168943860445692 
768	 0,169043226187733 
769	 0,170061624161473 
770	 0,170439160107916 
771	 0,170366426622362 
772	 0,170245009077343 
773	 0,170525802277182 
774	 0,171171567829123 
775	 0,171718174118498 
776	 0,172052498436139 
777	 0,172134116612898 
778	 0,172241190660626 
779	 0,172450462060298 
780	 0,172819249479947 
781	 0,173027053034311 
782	 0,173041522236153 
783	 0,173070834612554 
784	 0,173209116714658 
785	 0,173522533785461 
786	 0,173987074608107 
787	 0,174450553257284 
788	 0,17466358880634 
789	 0,174845463887629 
790	 0,175015370661059 
791	 0,174924337988982 
792	 0,174976195302465 
793	 0,175467217515182 
794	 0,175913385116273 
795	 0,176240674077284 
796	 0,176512837630993 
797	 0,176498272077013 
798	 0,176338143231999 
799	 0,17708913356331 
800	 0,177715798775222 
801	 0,177279406354551 
802	 0,177254255261342 
803	 0,177631026800173 
804	 0,17762079287088 
805	 0,177794664078971 
806	 0,178215952375985 
807	 0,178099010215853 
808	 0,177974832577349 
809	 0,17844189254668 
810	 0,17883913332769 
811	 0,179108265126217 
812	 0,179534094610465 
813	 0,179705096921378 
814	 0,179603188885417 
815	 0,180249727047726 
816	 0,180884057435955 
817	 0,180549898055622 
818	 0,180914927195797 
819	 0,181832174509049 
820	 0,181684637682759 
821	 0,181593983179658 
822	 0,182025427076613 
823	 0,182322988061438 
824	 0,182573280152262 
825	 0,182960267890394 
826	 0,18305667386975 
827	 0,182984575072459 
828	 0,183475439761001 
829	 0,183883990049465 
830	 0,183846634477961 
831	 0,183314289753986 
832	 0,1829507186025 
833	 0,183628327332724 
834	 0,184301996584488 
835	 0,184642658568736 
836	 0,184479214686581 
837	 0,184651258612337 
838	 0,185461290208743 
839	 0,185520067351139 
840	 0,185188234506263 
841	 0,185191553486729 
842	 0,185291885445816 
843	 0,185517812580425 
844	 0,186174969830547 
845	 0,186427257648087 
846	 0,185964836897905 
847	 0,186153543252185 
848	 0,186659333392547 
849	 0,18679716286351 
850	 0,186520995824736 
851	 0,186046168513628 
852	 0,186064949234496 
853	 0,186485253682592 
854	 0,187193733391195 
855	 0,187845298042641 
856	 0,188144067006162 
857	 0,187784230933457 
858	 0,187138493057661 
859	 0,186677041724353 
860	 0,18751357939517 
861	 0,188128650585544 
862	 0,187832516163779 
863	 0,187848133495241 
864	 0,188045031764811 
865	 0,188095900839417 
866	 0,18878316481026 
867	 0,189745640602698 
868	 0,189354751506696 
869	 0,189063041923506 
870	 0,189438093038065 
871	 0,189300999268739 
872	 0,189223379476708 
873	 0,189965834144202 
874	 0,190180224706069 
875	 0,189939417121072 
876	 0,190320080174979 
877	 0,190877417887579 
878	 0,191343246388663 
879	 0,191275820477596 
880	 0,191198533580198 
881	 0,191679032006552 
882	 0,191952837758923 
883	 0,192000818058196 
884	 0,192165659373452 
885	 0,192407299745742 
886	 0,192751916917021 
887	 0,193413042530508 
888	 0,193716000604775 
889	 0,19312469024448 
890	 0,193147942028286 
891	 0,193638505339354 
892	 0,193613415762517 
893	 0,193846478560817 
894	 0,194393523697431 
895	 0,194451301269724 
896	 0,194306196354096 
897	 0,194251443933708 
898	 0,194613571543729 
899	 0,195125399568401 
900	 0,195231313205364 
901	 0,195095944048007 
902	 0,194948048133606 
903	 0,19550153903073 
904	 0,195775227271832 
905	 0,19534497909775 
906	 0,195936295271033 
907	 0,196906950236506 
908	 0,197070121689403 
909	 0,196458410399899 
910	 0,195725418989386 
911	 0,196963243169123 
912	 0,197807739916069 
913	 0,197291917564781 
914	 0,196985454247283 
915	 0,196933173481978 
916	 0,197046206516119 
917	 0,197745199194412 
918	 0,198299720760913 
919	 0,196577819221393 
920	 0,195739595277164 
921	 0,196514515439465 
922	 0,196476925821738 
923	 0,196299962441261 
924	 0,196603443904172 
925	 0,196921927838747 
926	 0,197394769708884 
927	 0,198442194602818 
928	 0,198585389348083 
929	 0,197703824086358 
930	 0,19704740591472 
931	 0,19656377778588 
932	 0,196259947531685 
933	 0,196208067003599 
934	 0,196244048108504 
935	 0,196173548658928 
936	 0,197028751999206 
937	 0,198050772506912 
938	 0,196488735276323 
939	 0,195021257524332 
940	 0,194605943178529 
941	 0,194370948837966 
942	 0,193960068794531 
943	 0,193187468465361 
944	 0,19327435176132 
945	 0,193575904134594 
946	 0,192542812179733 
947	 0,191734780888049 
948	 0,191473177707034 
949	 0,191341687347655 
950	 0,190364348741841 
951	 0,188400496583594 
952	 0,188358598301392 
953	 0,189271541765234 
954	 0,189539870332468 
955	 0,188219714548842 
956	 0,186148675522646 
957	 0,186025491686383 
958	 0,185984938398619 
959	 0,185632708368314 
960	 0,186208614798697 
961	 0,186487014240091 
962	 0,185577356301138 
963	 0,184518150826618 
964	 0,183269046925598 
965	 0,181541906089533 
966	 0,182666263658133 
967	 0,185445003275779 
968	 0,183430066392824 
969	 0,18281827038912 
970	 0,185157205438712 
971	 0,183314017882684 
972	 0,182321230740443 
973	 0,186505430777695 
974	 0,187349642007672 
975	 0,185774173880182 
976	 0,186054618718467 
977	 0,185431705754327 
978	 0,184138987850142 
979	 0,185172535118156 
980	 0,186765633113148 
981	 0,187700487406528 
982	 0,186528686394925 
983	 0,185569890538104 
984	 0,18704177164357 
985	 0,186865302438102 
986	 0,185827689651095 
987	 0,18687771185079 
988	 0,187679487208211 
989	 0,187770960983444 
990	 0,188019027212368 
991	 0,18820635347375 
992	 0,188118850489717 
993	 0,186824840604497 
994	 0,186847117002979 
995	 0,190325242866304 
996	 0,19042405150954 
997	 0,188213708805426 
998	 0,188200959642299 
999	 0,190139823422716 
1000	 0,192746877417457 
1001	 0,191466865783432 
1002	 0,190603817809504 
1003	 0,192253379905925 
1004	 0,195042625330308 
1005	 0,196370834887288 
1006	 0,194361422545106 
1007	 0,196102144518799 
1008	 0,199124340704255 
1009	 0,196918308765233 
1010	 0,197499597581085 
1011	 0,200264753852068 
1012	 0,195750192482496 
1013	 0,194039943274038 
1014	 0,198400544110452 
1015	 0,200866113188445 
1016	 0,201493067108629 
1017	 0,200824061840139 
1018	 0,200264266269066 
1019	 0,200294133013442 
1020	 0,20116587842815 
1021	 0,201607159156187 
1022	 0,202274516176955 
1023	 0,206243052097612 
1024	 0,207431804556568 
1025	 0,205368140260767 
1026	 0,208487104551399 
1027	 0,210114903825535 
1028	 0,206647992649201 
1029	 0,206080753269316 
1030	 0,205515260422697 
1031	 0,201207181002516 
1032	 0,202720662564976 
1033	 0,207718207175868 
1034	 0,207840381811898 
1035	 0,209617422346568 
1036	 0,213245542116389 
1037	 0,213913008809745 
1038	 0,209572891469859 
1039	 0,202905804468875 
1040	 0,212004709934218 
1041	 0,220810878577587 
1042	 0,216001612368038 
1043	 0,210279062740556 
1044	 0,209262270728451 
1045	 0,217247383062733 
1046	 0,217264848276511 
1047	 0,211523001902183 
1048	 0,214106781650656 
1049	 0,218495997986045 
1050	 0,221730980519902 
1051	 0,220262756001096 
1052	 0,220070951707222 
1053	 0,223097876238113 
1054	 0,222484779206916 
1055	 0,21781796821113 
1056	 0,210642714271925 
1057	 0,213370873942845 
1058	 0,219402570842818 
1059	 0,217049186472762 
1060	 0,210778065157763 
1061	 0,206565316850147 
1062	 0,216670114240396 
1063	 0,220634764004068 
1064	 0,216094327096892 
1065	 0,217512860162076 
1066	 0,220460211049814 
1067	 0,222058941279075 
1068	 0,217373269378479 
1069	 0,215268952181078 
1070	 0,220989236143143 
1071	 0,221798721343912 
1072	 0,219002582713398 
1073	 0,216285938462434 
1074	 0,218053260629746 
1075	 0,22477156442837 
