Wavelength	SCO-GRA00249.asd
325	 0,267901511917867 
326	 0,349843261910584 
327	 0,328492706196533 
328	 0,113316232890343 
329	 4,94692486038348E-03 
330	 4,59131713940857E-02 
331	 0,177653700859313 
332	 0,247213176054014 
333	 0,246018747096386 
334	 0,189165113096823 
335	 0,073471040758808 
336	-2,73466475704556E-02 
337	 0,168208165040915 
338	 0,344725792791484 
339	 0,229465815709835 
340	 0,156273916739388 
341	 0,146890916793507 
342	 0,150904720967996 
343	 0,128165049281058 
344	 7,92021677131693E-02 
345	 0,096609239093735 
346	 0,116024056280167 
347	 7,90986642160484E-02 
348	 9,07620192887766E-02 
349	 0,128247718827159 
350	 7,07472157119637E-02 
351	 0,050769783766213 
352	 0,102692900420771 
353	 0,160776283425239 
354	 0,179799942324666 
355	 0,118407082086568 
356	 6,45565366166631E-02 
357	 4,96645981135053E-02 
358	 7,92750534628625E-02 
359	 0,103927138885436 
360	 9,95256480170443E-02 
361	 8,80920634437516E-02 
362	 7,77200880514932E-02 
363	 0,074165541978537 
364	 7,49882057521384E-02 
365	 7,73092829370125E-02 
366	 7,27331871149692E-02 
367	 7,27415016439956E-02 
368	 8,28872315496278E-02 
369	 8,59475597639587E-02 
370	 8,41968027642479E-02 
371	 8,56870026726024E-02 
372	 8,76158714319477E-02 
373	 8,97907494516864E-02 
374	 9,45940504777113E-02 
375	 9,71756215350945E-02 
376	 9,32694155153722E-02 
377	 7,21025975613325E-02 
378	 5,17121131866413E-02 
379	 7,08578206181799E-02 
380	 9,23694779116466E-02 
381	 9,99341712683634E-02 
382	 8,56701683978901E-02 
383	 6,66935486953298E-02 
384	 6,06913722325743E-02 
385	 7,51437482547863E-02 
386	 9,30483482877166E-02 
387	 7,18364161356462E-02 
388	 5,97093123070639E-02 
389	 7,31239949333112E-02 
390	 8,40955529917204E-02 
391	 8,52548720675182E-02 
392	 7,00894648170436E-02 
393	 6,30771044558164E-02 
394	 6,75312475754573E-02 
395	 7,38984968769146E-02 
396	 8,16316291713184E-02 
397	 8,82571818217495E-02 
398	 7,84313725490196E-02 
399	 6,74328243206021E-02 
400	 8,02228724359237E-02 
401	 8,16244760351766E-02 
402	 7,02063428292278E-02 
403	 7,63073371870499E-02 
404	 7,85198360728526E-02 
405	 6,41416940352078E-02 
406	 6,27845947673936E-02 
407	 6,82707389258501E-02 
408	 5,82961845688199E-02 
409	 5,42093053100006E-02 
410	 5,94206602206953E-02 
411	 0,059297735527932 
412	 5,81668159109142E-02 
413	 6,06421344515698E-02 
414	 6,57421207989728E-02 
415	 6,99479896788669E-02 
416	 6,51356575558152E-02 
417	 6,14129039692553E-02 
418	 6,22256041468901E-02 
419	 5,96439414215667E-02 
420	 5,82403503077967E-02 
421	 6,43596816496337E-02 
422	 6,73274371540408E-02 
423	 6,52470615147684E-02 
424	 6,01101935325461E-02 
425	 5,78292231743485E-02 
426	 6,15711896132153E-02 
427	 6,47350006147776E-02 
428	 6,56669337515554E-02 
429	 6,30939965015347E-02 
430	 6,07550890721802E-02 
431	 5,99485831798146E-02 
432	 6,02777902708029E-02 
433	 6,07061672912835E-02 
434	 6,03465305694722E-02 
435	 5,96139003348955E-02 
436	 5,92161650429714E-02 
437	 6,11755430333345E-02 
438	 6,05828691824368E-02 
439	 5,68543860077412E-02 
440	 5,95028851461401E-02 
441	 6,35828982937752E-02 
442	 6,19402456735843E-02 
443	 0,059833321470962 
444	 5,89558746821149E-02 
445	 6,06305152507483E-02 
446	 6,14276673583048E-02 
447	 5,96281278227585E-02 
448	 6,05059424709758E-02 
449	 6,23755325824393E-02 
450	 6,07419648734436E-02 
451	 5,97920669745185E-02 
452	 6,06020755628582E-02 
453	 0,06177155209632 
454	 6,24053493383336E-02 
455	 6,19227807148606E-02 
456	 6,33917506747615E-02 
457	 6,63687638861909E-02 
458	 6,85987397531307E-02 
459	 6,82115676190945E-02 
460	 6,47486285812033E-02 
461	 6,09858474142251E-02 
462	 5,95601280614373E-02 
463	 6,33688586928737E-02 
464	 6,52706451869433E-02 
465	 6,40010182300463E-02 
466	 6,19546557466164E-02 
467	 6,18712408268669E-02 
468	 6,50702160661881E-02 
469	 6,57014273325629E-02 
470	 6,45609325154931E-02 
471	 6,49917466620042E-02 
472	 6,57184318936219E-02 
473	 6,61380244826818E-02 
474	 0,065262777372817 
475	 6,36375398476555E-02 
476	 6,18907395563229E-02 
477	 6,05850791312459E-02 
478	 6,05583590124274E-02 
479	 6,39811072517094E-02 
480	 6,56288047247798E-02 
481	 0,063551775817033 
482	 6,31205891176753E-02 
483	 6,38935488147642E-02 
484	 6,43254418980363E-02 
485	 0,064504501167388 
486	 6,44091712305871E-02 
487	 0,064089627237445 
488	 6,39606636618796E-02 
489	 6,41328187465302E-02 
490	 6,19109900318634E-02 
491	 5,92246064254777E-02 
492	 6,16711674073875E-02 
493	 6,27079123682274E-02 
494	 6,08954834551913E-02 
495	 6,16024411722591E-02 
496	 0,063703204230988 
497	 6,54644787678486E-02 
498	 6,55816410929252E-02 
499	 6,39628830419964E-02 
500	 6,09116476740934E-02 
501	 0,060327818456778 
502	 6,37089132308529E-02 
503	 6,35956252298675E-02 
504	 6,15124949757247E-02 
505	 6,18049718205807E-02 
506	 6,26840831884641E-02 
507	 6,36367380162525E-02 
508	 6,46677074201291E-02 
509	 6,51317314560075E-02 
510	 6,45946647502486E-02 
511	 6,56685697178328E-02 
512	 6,76116995446252E-02 
513	 6,73082878802137E-02 
514	 6,64505463336198E-02 
515	 6,60332619751098E-02 
516	 6,74042408496401E-02 
517	 6,91277435280227E-02 
518	 6,90744092829672E-02 
519	 6,94561865911942E-02 
520	 7,02825506380196E-02 
521	 6,93326785834143E-02 
522	 6,89111999213041E-02 
523	 7,04617268739884E-02 
524	 7,05548772418264E-02 
525	 6,92888712422836E-02 
526	 0,06787802244915 
527	 6,77181337898538E-02 
528	 6,88714616418421E-02 
529	 6,83860156972271E-02 
530	 6,73580966447522E-02 
531	 6,72803729251092E-02 
532	 6,75111765450009E-02 
533	 6,79049546540794E-02 
534	 6,85807868148941E-02 
535	 6,85594091983182E-02 
536	 6,75179261833353E-02 
537	 6,79190553027668E-02 
538	 6,91354214442348E-02 
539	 6,94771562906003E-02 
540	 6,91725535394199E-02 
541	 6,84373271251217E-02 
542	 0,068015234293995 
543	 6,81028878965656E-02 
544	 6,87933625305795E-02 
545	 6,90403112714303E-02 
546	 6,88388864702895E-02 
547	 6,88359532005207E-02 
548	 6,89305894099137E-02 
549	 6,91105717399541E-02 
550	 6,95961080593944E-02 
551	 6,98615095285255E-02 
552	 6,90523912394035E-02 
553	 6,86160272159445E-02 
554	 6,87789449399702E-02 
555	 6,85430761358414E-02 
556	 6,84435070951441E-02 
557	 0,068848137930969 
558	 6,83892692396136E-02 
559	 6,72593721501294E-02 
560	 0,066403805300056 
561	 6,62919004861374E-02 
562	 6,69280280393268E-02 
563	 6,67378507882422E-02 
564	 6,63577845895256E-02 
565	 6,68199182389742E-02 
566	 6,70221262048172E-02 
567	 6,68978298601973E-02 
568	 6,72605581070944E-02 
569	 6,75267972489985E-02 
570	 6,73832174022108E-02 
571	 6,79105302943064E-02 
572	 6,90427310556153E-02 
573	 7,03424582161862E-02 
574	 7,12663594800399E-02 
575	 7,17903958215008E-02 
576	 7,30983707544127E-02 
577	 7,46871733206898E-02 
578	 7,58962948223045E-02 
579	 0,076810824032576 
580	 7,75004029336763E-02 
581	 7,81146268624802E-02 
582	 7,89291274827408E-02 
583	 8,00070511807643E-02 
584	 8,03149594155252E-02 
585	 8,07119858867604E-02 
586	 8,30372248830633E-02 
587	 8,42724006398966E-02 
588	 8,39112032143119E-02 
589	 8,41498651860498E-02 
590	 8,48316192151891E-02 
591	 0,085681440529893 
592	 8,60221461686503E-02 
593	 8,60736058427245E-02 
594	 8,69999115359366E-02 
595	 8,71638744676178E-02 
596	 8,61421725323747E-02 
597	 8,66218271826049E-02 
598	 8,75320299215249E-02 
599	 8,68422160214111E-02 
600	 8,67144625126969E-02 
601	 8,72692162047608E-02 
602	 8,66444912375288E-02 
603	 8,56243269069236E-02 
604	 8,48664002369518E-02 
605	 8,40898127947768E-02 
606	 8,33883891896121E-02 
607	 8,30542595460185E-02 
608	 8,28021183640905E-02 
609	 8,25239864679199E-02 
610	 0,082346808136532 
611	 8,20945052674021E-02 
612	 8,15491539239869E-02 
613	 8,09862701713412E-02 
614	 8,05348865650156E-02 
615	 8,04244544163377E-02 
616	 0,079992956318381 
617	 7,89470780280256E-02 
618	 7,87454173519934E-02 
619	 7,89666604007288E-02 
620	 7,83123090096991E-02 
621	 0,078043314969799 
622	 7,83718036129345E-02 
623	 7,82098666825042E-02 
624	 7,81180303706146E-02 
625	 7,86914986370655E-02 
626	 0,078724410673488 
627	 7,83429266770048E-02 
628	 7,86780086521467E-02 
629	 7,90946589617624E-02 
630	 7,93195311983723E-02 
631	 0,079733858169604 
632	 8,04997893573276E-02 
633	 8,18610718651792E-02 
634	 8,24256321250921E-02 
635	 8,20899492329464E-02 
636	 8,22506589472094E-02 
637	 8,28219562932152E-02 
638	 8,37032516575635E-02 
639	 8,50138217962358E-02 
640	 8,65230557100999E-02 
641	 8,78441582483638E-02 
642	 8,83081681431553E-02 
643	 8,78667124415476E-02 
644	 8,81344190986917E-02 
645	 8,88106025747202E-02 
646	 8,92983383587097E-02 
647	 8,93604392084778E-02 
648	 8,90216547246324E-02 
649	 0,088675505722657 
650	 8,83292364400167E-02 
651	 8,79441981394622E-02 
652	 8,70843979098065E-02 
653	 8,59568220475085E-02 
654	 8,51625349758837E-02 
655	 8,38651906767017E-02 
656	 8,20451709398424E-02 
657	 8,10206764544762E-02 
658	 8,00495105716104E-02 
659	 7,82980636029042E-02 
660	 7,61976669713268E-02 
661	 0,07416625363976 
662	 7,30532803254469E-02 
663	 7,21937078578052E-02 
664	 7,12293040268685E-02 
665	 7,02100221974042E-02 
666	 6,93454703689948E-02 
667	 6,89893298472473E-02 
668	 6,81311710497795E-02 
669	 6,68444080194503E-02 
670	 6,66443572996428E-02 
671	 6,65517844529394E-02 
672	 0,06580905283545 
673	 6,54662050256546E-02 
674	 6,55436298122754E-02 
675	 6,57139921025552E-02 
676	 6,57221374455954E-02 
677	 6,54527675743675E-02 
678	 6,49602732473834E-02 
679	 6,47208504924026E-02 
680	 6,52692654314791E-02 
681	 6,59132914331063E-02 
682	 6,65185228401266E-02 
683	 6,72467112640942E-02 
684	 6,80493518585412E-02 
685	 6,89869673107309E-02 
686	 7,07421470342219E-02 
687	 7,28677262765352E-02 
688	 7,43612603266461E-02 
689	 7,66430191531808E-02 
690	 8,00483968307869E-02 
691	 8,38515041081592E-02 
692	 8,83556165781866E-02 
693	 9,38110771977043E-02 
694	 9,94924866321219E-02 
695	 0,105712689913878 
696	 0,113561649462827 
697	 0,122427498452942 
698	 0,131973241549627 
699	 0,141870956021263 
700	 0,152425124228683 
701	 0,164042013909443 
702	 0,176230137345866 
703	 0,188600091274398 
704	 0,200467449235279 
705	 0,212467576763368 
706	 0,224921771005122 
707	 0,236754870529844 
708	 0,248161250535255 
709	 0,259837427143252 
710	 0,271228111395982 
711	 0,282085196879641 
712	 0,292308563664621 
713	 0,301957980184669 
714	 0,311078331581797 
715	 0,319961568654775 
716	 0,328379161670358 
717	 0,335518506804418 
718	 0,342558261773801 
719	 0,349804278938383 
720	 0,355798296334037 
721	 0,361168914846597 
722	 0,366881319050484 
723	 0,371889223269727 
724	 0,376157702476061 
725	 0,380366229113523 
726	 0,384407430547704 
727	 0,388192627072926 
728	 0,391540889835288 
729	 0,394402857995359 
730	 0,396709561621412 
731	 0,399039391705951 
732	 0,401458201606516 
733	 0,403263385028103 
734	 0,405033314408689 
735	 0,407234000907397 
736	 0,408882336933712 
737	 0,410105451357732 
738	 0,411674672737008 
739	 0,413114724741429 
740	 0,414312283660232 
741	 0,415661009966101 
742	 0,41680129388878 
743	 0,417306454674519 
744	 0,418109894714138 
745	 0,419186700939133 
746	 0,419730375521539 
747	 0,420285553200241 
748	 0,421105648660374 
749	 0,421811116100994 
750	 0,422384135705841 
751	 0,42286248262597 
752	 0,423463486244148 
753	 0,424090451670118 
754	 0,424075594322061 
755	 0,424231121973066 
756	 0,425102706307675 
757	 0,425863767477686 
758	 0,426395994955959 
759	 0,426781100758778 
760	 0,426812013157435 
761	 0,426652221475434 
762	 0,427319090351114 
763	 0,42803042540963 
764	 0,42804103496866 
765	 0,428316430236766 
766	 0,428755513902619 
767	 0,428561231121711 
768	 0,42862209380393 
769	 0,42919994086184 
770	 0,429616961944201 
771	 0,429786448394173 
772	 0,429690667939893 
773	 0,429818700388007 
774	 0,430155834752196 
775	 0,430266545454898 
776	 0,430347306201356 
777	 0,430486129208026 
778	 0,430578820268055 
779	 0,430650303709096 
780	 0,43074711958895 
781	 0,431000536750975 
782	 0,431352170077002 
783	 0,431485953121484 
784	 0,431514562678031 
785	 0,431548950709886 
786	 0,431868447487642 
787	 0,432217848983747 
788	 0,432069782870533 
789	 0,431978857189812 
790	 0,432011859060488 
791	 0,431657653469954 
792	 0,431473502322071 
793	 0,431854129814165 
794	 0,431924965623384 
795	 0,431772622453569 
796	 0,431907997845081 
797	 0,432057375633415 
798	 0,432114566634433 
799	 0,432004515480846 
800	 0,431876080937281 
801	 0,431888492560131 
802	 0,432242935968605 
803	 0,432699677391748 
804	 0,432568076498931 
805	 0,432423101440643 
806	 0,432454167801701 
807	 0,43242653854625 
808	 0,432462233300025 
809	 0,432704638372122 
810	 0,43319238950056 
811	 0,433708791441714 
812	 0,433674740543884 
813	 0,433539613289464 
814	 0,433542697587173 
815	 0,433866098673691 
816	 0,43411100063759 
817	 0,433813073599987 
818	 0,433904307811749 
819	 0,434428880828561 
820	 0,434886109781591 
821	 0,435145127620426 
822	 0,435172177826943 
823	 0,43534402033705 
824	 0,435564412026199 
825	 0,435661683204087 
826	 0,436044511919229 
827	 0,436566509552239 
828	 0,436448536673791 
829	 0,436410436369526 
830	 0,436754879751842 
831	 0,436841362228469 
832	 0,436655207837216 
833	 0,436275954108354 
834	 0,436708121926417 
835	 0,437689804349336 
836	 0,43749531501835 
837	 0,437299691263605 
838	 0,437630390989448 
839	 0,437447494384219 
840	 0,43703265641677 
841	 0,436926876607595 
842	 0,437212139657215 
843	 0,437734964991116 
844	 0,437975077973219 
845	 0,437814121689098 
846	 0,437297262193567 
847	 0,437230015334109 
848	 0,437495775893072 
849	 0,437786325545794 
850	 0,437632816091456 
851	 0,437164980045028 
852	 0,437265082574964 
853	 0,437330952290984 
854	 0,437196262650822 
855	 0,438134274684546 
856	 0,439060647479945 
857	 0,438362435113269 
858	 0,43786564121545 
859	 0,437823989357363 
860	 0,437437611495944 
861	 0,437323181633249 
862	 0,437691390431554 
863	 0,437739303014872 
864	 0,437587967732366 
865	 0,437515411323707 
866	 0,437911019533393 
867	 0,43845302019373 
868	 0,437780652451899 
869	 0,437620712018646 
870	 0,438544494969545 
871	 0,438533389171669 
872	 0,438313521209488 
873	 0,438939845461471 
874	 0,43911800470111 
875	 0,438874258869791 
876	 0,439038079344575 
877	 0,439616509991198 
878	 0,440396736000599 
879	 0,440042671903463 
880	 0,439749615796388 
881	 0,440810278370593 
882	 0,440998844391875 
883	 0,440460720433691 
884	 0,440753736065755 
885	 0,441210733791649 
886	 0,441534762105812 
887	 0,441386039948143 
888	 0,441151609056303 
889	 0,44120873808571 
890	 0,441350611135177 
891	 0,441334766706648 
892	 0,440637517289946 
893	 0,440612942259794 
894	 0,441406361204493 
895	 0,441503112896471 
896	 0,441385450661577 
897	 0,441461853433318 
898	 0,441494827299829 
899	 0,441487612206493 
900	 0,441480939194136 
901	 0,441756330775015 
902	 0,442136558734346 
903	 0,441628480420556 
904	 0,441281189284431 
905	 0,441660280890077 
906	 0,441706815716889 
907	 0,44155550060016 
908	 0,441579780929751 
909	 0,441329780285211 
910	 0,440998832500953 
911	 0,441492104369464 
912	 0,442124613201341 
913	 0,442416066020786 
914	 0,441734770626176 
915	 0,440858164408593 
916	 0,440683673278501 
917	 0,440532313155055 
918	 0,440133674334931 
919	 0,439014948018472 
920	 0,438788610460828 
921	 0,439561997991884 
922	 0,438860322677206 
923	 0,438008761521392 
924	 0,438161825203666 
925	 0,43846863347888 
926	 0,438769277034178 
927	 0,439084017557185 
928	 0,438134549839951 
929	 0,436343103517104 
930	 0,43667811299546 
931	 0,436784238775265 
932	 0,435425733867098 
933	 0,434322725946854 
934	 0,433793087043416 
935	 0,433947451408197 
936	 0,434037085483296 
937	 0,433407323844566 
938	 0,430625880220333 
939	 0,429014416758304 
940	 0,429513733774133 
941	 0,429601530454416 
942	 0,429048891251563 
943	 0,427846537890124 
944	 0,426869547323649 
945	 0,425849166911752 
946	 0,423946089028163 
947	 0,423116420372783 
948	 0,423062783987574 
949	 0,420579525661355 
950	 0,417880262872981 
951	 0,416321287579438 
952	 0,415587210425921 
953	 0,415401606927148 
954	 0,415351356195781 
955	 0,413460268197235 
956	 0,410345823501506 
957	 0,408629231049411 
958	 0,407387637340033 
959	 0,406428640623514 
960	 0,405909444219318 
961	 0,405999934519409 
962	 0,40647061779133 
963	 0,404339382874204 
964	 0,401725740634173 
965	 0,402432833681197 
966	 0,403847580514156 
967	 0,404696022397786 
968	 0,403172344217039 
969	 0,402136555646683 
970	 0,402546428222077 
971	 0,402058120062932 
972	 0,401544420815171 
973	 0,40192300740208 
974	 0,402987693178588 
975	 0,403775389609949 
976	 0,40266273740012 
977	 0,402302723749683 
978	 0,402803736816884 
979	 0,401448950835428 
980	 0,402199104589294 
981	 0,405840184473589 
982	 0,404875369292961 
983	 0,402473568914621 
984	 0,402483960536297 
985	 0,403876967413133 
986	 0,405321342199982 
987	 0,404574540334774 
988	 0,403557743220243 
989	 0,403011901216345 
990	 0,403228791923122 
991	 0,404391139348981 
992	 0,406175218875176 
993	 0,406266812688796 
994	 0,406173867979498 
995	 0,407559341060537 
996	 0,408711836416257 
997	 0,409465597577397 
998	 0,410146850833404 
999	 0,409348833276305 
1000	 0,407727897925433 
1001	 0,408901082074787 
1002	 0,410038157837231 
1003	 0,409926441154067 
1004	 0,410288973203262 
1005	 0,411604496135902 
1006	 0,414074645155482 
1007	 0,416681388904054 
1008	 0,417593993574958 
1009	 0,414077736007145 
1010	 0,412971515214024 
1011	 0,415102013279571 
1012	 0,416692108950971 
1013	 0,416582144128861 
1014	 0,415139460215695 
1015	 0,417841009152556 
1016	 0,420764422470117 
1017	 0,420378597977353 
1018	 0,418383145247619 
1019	 0,416643138942429 
1020	 0,41748966347851 
1021	 0,422531163508624 
1022	 0,427982546064999 
1023	 0,422459097294032 
1024	 0,419148236701388 
1025	 0,421506488362513 
1026	 0,422447873934741 
1027	 0,424026172132476 
1028	 0,42704341631442 
1029	 0,427512077181432 
1030	 0,426413568298891 
1031	 0,425412114783186 
1032	 0,423467553370724 
1033	 0,422626591527963 
1034	 0,426989089097425 
1035	 0,430786842072196 
1036	 0,432494501344995 
1037	 0,434241893450264 
1038	 0,430905948821389 
1039	 0,423185996627075 
1040	 0,426064564297496 
1041	 0,430357351500116 
1042	 0,428511917202533 
1043	 0,430069747699657 
1044	 0,433093414089218 
1045	 0,433410322937802 
1046	 0,43422986958367 
1047	 0,435084154113504 
1048	 0,433388989934652 
1049	 0,432243337133537 
1050	 0,431657051722183 
1051	 0,425729473760762 
1052	 0,431225050198016 
1053	 0,449932326952372 
1054	 0,446259625241767 
1055	 0,433066072619665 
1056	 0,424657367609448 
1057	 0,425812800458472 
1058	 0,431777994570778 
1059	 0,434083038644993 
1060	 0,429754859272891 
1061	 0,423854563325978 
1062	 0,430568416540588 
1063	 0,432397875031775 
1064	 0,427207614350357 
1065	 0,426762026482005 
1066	 0,425427816340429 
1067	 0,422755872016996 
1068	 0,430690772186317 
1069	 0,432251215499192 
1070	 0,418848992803215 
1071	 0,425881285252974 
1072	 0,43881087156035 
1073	 0,436687795310733 
1074	 0,433754530147662 
1075	 0,432619369734273 
