Wavelength	SCO-GRA00090.asd
325	 0,247669220227799 
326	 0,270026347384356 
327	 0,262746427471885 
328	 0,154648445849826 
329	 8,60943730219751E-02 
330	 8,57135448098974E-02 
331	 0,127491801237079 
332	 0,183397149360027 
333	 0,231522085682793 
334	 0,241781998181635 
335	 0,218523798877768 
336	 0,178203764125206 
337	 0,19182326673854 
338	 0,193523856769631 
339	 0,132055215179423 
340	 0,107470353833597 
341	 0,123867928303621 
342	 0,168267257336256 
343	 0,185598367342939 
344	 0,161604914115631 
345	 0,124174691932185 
346	 9,79777867085602E-02 
347	 9,61375253305839E-02 
348	 0,117610862203489 
349	 0,136660948195239 
350	 9,08156912401728E-02 
351	 6,69678715681514E-02 
352	 8,85908670896936E-02 
353	 0,11468925617594 
354	 0,127689695048951 
355	 0,113389297764205 
356	 9,10257442902336E-02 
357	 7,65154271986294E-02 
358	 9,04337282753103E-02 
359	 0,104474688706103 
360	 0,101244463575983 
361	 6,13219750490789E-02 
362	 0,029493771249044 
363	 6,32363816373807E-02 
364	 8,67738170936166E-02 
365	 8,63587184002906E-02 
366	 8,87587951990495E-02 
367	 8,76172875183649E-02 
368	 8,01349480864814E-02 
369	 7,47258413715455E-02 
370	 7,49918725268493E-02 
371	 8,56472543363542E-02 
372	 8,10621719867801E-02 
373	 6,36398437957072E-02 
374	 7,59214299525629E-02 
375	 9,08303198102697E-02 
376	 8,85351326303417E-02 
377	 7,86115639595036E-02 
378	 6,86782827577501E-02 
379	 0,069379569802904 
380	 7,62141868424924E-02 
381	 8,43057673546322E-02 
382	 7,96383465543135E-02 
383	 7,38530865282816E-02 
384	 7,89365832533516E-02 
385	 9,49260029400242E-02 
386	 0,109791378607668 
387	 9,79183369090715E-02 
388	 8,71408584206486E-02 
389	 8,72760815779259E-02 
390	 7,95948950907702E-02 
391	 7,00770106601082E-02 
392	 6,80236613314892E-02 
393	 6,94902009165931E-02 
394	 7,24057775791642E-02 
395	 7,30535248709166E-02 
396	 0,077445424263417 
397	 8,61970684039088E-02 
398	 8,03432860488646E-02 
399	 7,20909451128281E-02 
400	 0,082870927286787 
401	 8,03780760764814E-02 
402	 6,60590368326959E-02 
403	 7,71519324481623E-02 
404	 8,46765915023986E-02 
405	 7,05156195952555E-02 
406	 6,22781668900199E-02 
407	 6,04737096532992E-02 
408	 5,58345511193285E-02 
409	 5,81783697326393E-02 
410	 6,69951929787855E-02 
411	 6,87250137510452E-02 
412	 6,73199849737363E-02 
413	 6,71189065710708E-02 
414	 6,85583808754815E-02 
415	 6,95353422443022E-02 
416	 6,37905071338452E-02 
417	 0,061345733253219 
418	 0,064660383444189 
419	 6,04254612490714E-02 
420	 0,056583244967843 
421	 6,41671873843801E-02 
422	 6,67915564040583E-02 
423	 0,062656715682178 
424	 5,85428326000529E-02 
425	 5,63784977749053E-02 
426	 5,76277950302278E-02 
427	 0,063004896360076 
428	 6,81282496910381E-02 
429	 6,53225353972078E-02 
430	 6,25497842701802E-02 
431	 6,19156116524689E-02 
432	 6,10335538957606E-02 
433	 6,03524891331061E-02 
434	 6,03196262529645E-02 
435	 6,07894011044236E-02 
436	 6,12669713910402E-02 
437	 6,06684493483037E-02 
438	 5,99228430725193E-02 
439	 5,96116272633338E-02 
440	 6,10354867999038E-02 
441	 0,061585588196295 
442	 5,79344363170797E-02 
443	 0,05640989342706 
444	 5,81496407193251E-02 
445	 6,18812006400446E-02 
446	 6,27001001974151E-02 
447	 5,84603636346221E-02 
448	 5,96242326020452E-02 
449	 6,31253407796816E-02 
450	 6,05862647857274E-02 
451	 0,058164258474851 
452	 5,77549920297931E-02 
453	 5,84996053825517E-02 
454	 0,060352574932742 
455	 6,30911418035873E-02 
456	 6,35874925167983E-02 
457	 0,062609918207046 
458	 6,42401678209735E-02 
459	 6,41546377542709E-02 
460	 6,12832484715269E-02 
461	 6,08637986905323E-02 
462	 6,18996548993734E-02 
463	 6,23570046405486E-02 
464	 6,23545184815151E-02 
465	 6,20134944332467E-02 
466	 6,17182314141581E-02 
467	 0,062271283648965 
468	 6,39810653934625E-02 
469	 6,47457702077256E-02 
470	 6,42821569919101E-02 
471	 6,24704156164602E-02 
472	 6,26025816617125E-02 
473	 6,46474950795531E-02 
474	 6,28305807351911E-02 
475	 0,06003407257536 
476	 5,93659713667283E-02 
477	 5,98398902300202E-02 
478	 6,12947976612645E-02 
479	 6,41364622156353E-02 
480	 6,53882419306346E-02 
481	 6,40643803284314E-02 
482	 6,42796467782809E-02 
483	 6,51155796167397E-02 
484	 6,45513734025179E-02 
485	 6,38444841472007E-02 
486	 6,32431370869052E-02 
487	 6,24220750145403E-02 
488	 6,16074870807921E-02 
489	 6,10115867897914E-02 
490	 6,09844780848878E-02 
491	 6,11931015084366E-02 
492	 6,07166992968721E-02 
493	 6,05174140140802E-02 
494	 6,09116715128545E-02 
495	 6,17041214952052E-02 
496	 6,23357496066282E-02 
497	 6,22321979262431E-02 
498	 6,28667228179876E-02 
499	 6,32671741174882E-02 
500	 5,89010542898649E-02 
501	 0,05680141472935 
502	 6,03163362135953E-02 
503	 6,15052533165076E-02 
504	 6,10404249652255E-02 
505	 6,20259338469282E-02 
506	 6,25464870725203E-02 
507	 6,25149620033852E-02 
508	 6,39523840320394E-02 
509	 6,50415688435628E-02 
510	 6,41821966499573E-02 
511	 6,34957205410069E-02 
512	 6,34669484086259E-02 
513	 0,064126660061231 
514	 6,51843546493475E-02 
515	 6,61916795374931E-02 
516	 6,53656314468526E-02 
517	 6,44741462180902E-02 
518	 6,61890422938853E-02 
519	 6,67426425353175E-02 
520	 6,57156677213565E-02 
521	 6,53419198681077E-02 
522	 6,53093447320009E-02 
523	 6,53718495123757E-02 
524	 6,56895513657961E-02 
525	 6,58212539405186E-02 
526	 6,45905645001153E-02 
527	 6,42355482480379E-02 
528	 6,52327930515419E-02 
529	 6,56623762744299E-02 
530	 6,51593092884774E-02 
531	 6,35269896738281E-02 
532	 0,063129378769813 
533	 6,39977223075193E-02 
534	 6,42799794289945E-02 
535	 6,46884080883459E-02 
536	 6,54599627213649E-02 
537	 6,52062173060603E-02 
538	 6,43289144885635E-02 
539	 6,37983905713976E-02 
540	 6,40100137325208E-02 
541	 6,47988067071038E-02 
542	 6,47211754450093E-02 
543	 6,41130347231624E-02 
544	 6,34376415108559E-02 
545	 6,38047582377498E-02 
546	 6,47768813188228E-02 
547	 6,43689732682184E-02 
548	 6,43887860989533E-02 
549	 0,065474847514388 
550	 6,56814885634969E-02 
551	 6,52002490283761E-02 
552	 6,46693253784247E-02 
553	 6,40887932107058E-02 
554	 6,36517494924417E-02 
555	 0,063843006979486 
556	 6,43070038754568E-02 
557	 6,46769643252184E-02 
558	 6,43941348969451E-02 
559	 6,36415209014422E-02 
560	 0,063105585922971 
561	 6,26726892590186E-02 
562	 6,24214980106339E-02 
563	 6,28553582824711E-02 
564	 6,33763406730185E-02 
565	 6,31714754583996E-02 
566	 6,22199208227315E-02 
567	 0,061200620697105 
568	 6,24714459241096E-02 
569	 0,063750238445257 
570	 6,34841729452151E-02 
571	 0,063269885038862 
572	 6,34248460282519E-02 
573	 6,40589070096684E-02 
574	 6,48757003704412E-02 
575	 6,58013635364629E-02 
576	 6,71355914075438E-02 
577	 6,85014166814238E-02 
578	 6,94685997700953E-02 
579	 7,04913279003554E-02 
580	 7,14276880520533E-02 
581	 7,14595118582396E-02 
582	 7,16656663545814E-02 
583	 7,26560839411147E-02 
584	 7,38466527692952E-02 
585	 7,50647009322715E-02 
586	 7,61939490189518E-02 
587	 7,69029697159209E-02 
588	 7,71587416148267E-02 
589	 7,72885904253296E-02 
590	 7,75665260822413E-02 
591	 7,82135026235824E-02 
592	 7,88183449689022E-02 
593	 7,93026625726075E-02 
594	 7,98026333863587E-02 
595	 7,98335592965252E-02 
596	 7,93200795590902E-02 
597	 7,93936297211527E-02 
598	 0,079674312055265 
599	 7,94041966838731E-02 
600	 7,92698121224206E-02 
601	 7,93628278182754E-02 
602	 7,93343409722617E-02 
603	 7,90876078994483E-02 
604	 7,85563008879396E-02 
605	 7,77975390561762E-02 
606	 7,70632884547676E-02 
607	 7,69273785972526E-02 
608	 7,67134455506065E-02 
609	 7,62096942247585E-02 
610	 7,57739545951657E-02 
611	 7,55961221101216E-02 
612	 7,58624153681922E-02 
613	 7,55133922922389E-02 
614	 7,46809562941472E-02 
615	 7,48352297334737E-02 
616	 7,46458330734097E-02 
617	 7,34265192543852E-02 
618	 7,31106567748312E-02 
619	 7,33868638773103E-02 
620	 7,30841656681626E-02 
621	 7,27620565136917E-02 
622	 7,26025453430744E-02 
623	 7,26590807791889E-02 
624	 7,27878622115797E-02 
625	 7,28361545212042E-02 
626	 0,072851495551455 
627	 7,28377053177397E-02 
628	 7,26922412195678E-02 
629	 7,29760846524268E-02 
630	 0,073889774655412 
631	 7,45078719869685E-02 
632	 7,51461014980744E-02 
633	 7,65838929151262E-02 
634	 7,67173729302854E-02 
635	 7,56108325841027E-02 
636	 7,62003798287882E-02 
637	 7,70932597223183E-02 
638	 7,71465008334486E-02 
639	 7,84653608768571E-02 
640	 0,080508868770582 
641	 8,11444157885376E-02 
642	 8,11019003472049E-02 
643	 8,07708982867211E-02 
644	 8,07555997638223E-02 
645	 8,12351292557505E-02 
646	 8,23381488987704E-02 
647	 8,26153026695075E-02 
648	 8,19907965128275E-02 
649	 8,17088420775158E-02 
650	 8,12868973388621E-02 
651	 8,04424132274601E-02 
652	 7,95816977617431E-02 
653	 7,88893914434448E-02 
654	 7,86496287234082E-02 
655	 7,80784202867576E-02 
656	 7,69342118685433E-02 
657	 7,55212175943106E-02 
658	 7,42265874554651E-02 
659	 7,33972244218527E-02 
660	 7,20275247437287E-02 
661	 7,03396696354147E-02 
662	 6,96028276478507E-02 
663	 6,89166619160527E-02 
664	 6,79408872890717E-02 
665	 6,77158508338404E-02 
666	 6,76309175071329E-02 
667	 6,65816197223968E-02 
668	 6,54563208015478E-02 
669	 6,46298501670322E-02 
670	 6,44502406490644E-02 
671	 6,44303896814899E-02 
672	 6,42040318077482E-02 
673	 6,44426801652736E-02 
674	 6,49413331886365E-02 
675	 6,49912425082091E-02 
676	 6,49312213106901E-02 
677	 6,48513762000107E-02 
678	 6,45378902300358E-02 
679	 6,44308367175552E-02 
680	 6,50461308366915E-02 
681	 6,53907012399797E-02 
682	 6,54873098395808E-02 
683	 6,61652699849674E-02 
684	 6,71406858415887E-02 
685	 6,82499334797755E-02 
686	 6,95602801435297E-02 
687	 7,10528362664706E-02 
688	 7,26696465559281E-02 
689	 7,46142938518372E-02 
690	 7,70556054829594E-02 
691	 8,02598124062059E-02 
692	 8,42001006019267E-02 
693	 0,088813874931627 
694	 9,37373004117442E-02 
695	 9,92316941202272E-02 
696	 0,106121353850369 
697	 0,11380112941181 
698	 0,121989732811455 
699	 0,130686377178149 
700	 0,140072566177082 
701	 0,150360371873082 
702	 0,160936631065844 
703	 0,17159850468152 
704	 0,182425550075313 
705	 0,193145111570048 
706	 0,203638188090287 
707	 0,214344886865109 
708	 0,225136510065997 
709	 0,235739011503061 
710	 0,245716508760186 
711	 0,25509507465481 
712	 0,264882320456123 
713	 0,274284225066389 
714	 0,282525320824536 
715	 0,29033650908859 
716	 0,297938506678545 
717	 0,305527869833564 
718	 0,3127624692993 
719	 0,319391678725681 
720	 0,324954542659786 
721	 0,330070859566107 
722	 0,335572452356234 
723	 0,340491869988764 
724	 0,344684509362879 
725	 0,348437197342495 
726	 0,352042421473124 
727	 0,355632922136779 
728	 0,358613796721964 
729	 0,361092792500304 
730	 0,363357207472395 
731	 0,365910088464939 
732	 0,368635797128907 
733	 0,370252611099454 
734	 0,371538026735939 
735	 0,373210691443202 
736	 0,374986517759552 
737	 0,376666170153211 
738	 0,377888390158256 
739	 0,378901002720855 
740	 0,379848833084269 
741	 0,380944017125298 
742	 0,382027449278833 
743	 0,382894526200014 
744	 0,383740544153195 
745	 0,384522109763851 
746	 0,38497518749811 
747	 0,385367825237025 
748	 0,385828120300504 
749	 0,386094697615457 
750	 0,386391306454134 
751	 0,387101426241183 
752	 0,387696685893925 
753	 0,388051799856314 
754	 0,388319984942828 
755	 0,38856653335855 
756	 0,388849754567847 
757	 0,389221565826113 
758	 0,389607330146668 
759	 0,389868706456273 
760	 0,389881284537481 
761	 0,389735701240017 
762	 0,390032701838739 
763	 0,390448654203792 
764	 0,390648970111148 
765	 0,390766426792435 
766	 0,390863647587716 
767	 0,391041750529467 
768	 0,391235778441662 
769	 0,391421238272045 
770	 0,391625966036206 
771	 0,391770660492027 
772	 0,391767498501474 
773	 0,391839039217651 
774	 0,392003465413605 
775	 0,392157315302418 
776	 0,392221868398538 
777	 0,392194534978601 
778	 0,392407264679848 
779	 0,392625662229982 
780	 0,392451360572088 
781	 0,39256411785926 
782	 0,392985907952351 
783	 0,393153504011437 
784	 0,393074594347801 
785	 0,392838694175165 
786	 0,393163329881836 
787	 0,393699127893281 
788	 0,393654659312683 
789	 0,393383628972402 
790	 0,393083549187961 
791	 0,393085129376285 
792	 0,393267075515964 
793	 0,393479745650151 
794	 0,393308633623877 
795	 0,392994918642231 
796	 0,393239866967697 
797	 0,393214939333205 
798	 0,39284578858648 
799	 0,393180677938116 
800	 0,393546959235415 
801	 0,393305550678293 
802	 0,393205166415009 
803	 0,39333040654881 
804	 0,393492270147998 
805	 0,393875088023258 
806	 0,394448221713772 
807	 0,394806300960087 
808	 0,394807109915772 
809	 0,394374464077924 
810	 0,394274808361992 
811	 0,394540938781833 
812	 0,394789816640055 
813	 0,394789734613107 
814	 0,394578666375237 
815	 0,395127159128985 
816	 0,395829370487865 
817	 0,395887506732434 
818	 0,396004446465749 
819	 0,39619968122222 
820	 0,396038258122787 
821	 0,395975970221768 
822	 0,396176385159099 
823	 0,396122576978881 
824	 0,396122675743871 
825	 0,396619648423393 
826	 0,396964086280723 
827	 0,397057752586016 
828	 0,397074354452078 
829	 0,397400383453109 
830	 0,398107959770131 
831	 0,398230593826076 
832	 0,397913818570963 
833	 0,397513859782172 
834	 0,397518676795527 
835	 0,397851707564086 
836	 0,397714176804031 
837	 0,397871707312781 
838	 0,398563906716922 
839	 0,398411131801588 
840	 0,39800046160094 
841	 0,398361540075428 
842	 0,398503017250114 
843	 0,398299508017556 
844	 0,398181189736536 
845	 0,398012622077895 
846	 0,397831817865619 
847	 0,398376056194549 
848	 0,399038278312252 
849	 0,398878954277728 
850	 0,39861560457162 
851	 0,398359841737796 
852	 0,397768702269342 
853	 0,397582913223962 
854	 0,398133431071054 
855	 0,398710079713645 
856	 0,398965618890399 
857	 0,398574369304406 
858	 0,398010448917679 
859	 0,397646068780177 
860	 0,398214095908695 
861	 0,398586585595833 
862	 0,398270470879444 
863	 0,398342190363029 
864	 0,398462620332144 
865	 0,398067541356182 
866	 0,398284127364086 
867	 0,398927366530282 
868	 0,398493832587913 
869	 0,398746229642139 
870	 0,400082005691137 
871	 0,399441209730191 
872	 0,398441497807382 
873	 0,399288789375582 
874	 0,39972232372975 
875	 0,399572411201015 
876	 0,399789712700043 
877	 0,400104765521915 
878	 0,400413621388973 
879	 0,400690009058368 
880	 0,400961431968562 
881	 0,401247202061336 
882	 0,401199420610231 
883	 0,401070611717959 
884	 0,401735986840072 
885	 0,402169925132456 
886	 0,402117106276813 
887	 0,402355356955397 
888	 0,402681753675822 
889	 0,40286025586968 
890	 0,402942648611168 
891	 0,40280873596033 
892	 0,402087894656188 
893	 0,402291897773631 
894	 0,403356960989659 
895	 0,402566475733692 
896	 0,401745267733977 
897	 0,402337522192049 
898	 0,403175698166497 
899	 0,403852380116073 
900	 0,404025819133857 
901	 0,403432790931918 
902	 0,402452069099795 
903	 0,40265521340045 
904	 0,403166261539071 
905	 0,403382762222411 
906	 0,403230873074861 
907	 0,403175601465055 
908	 0,403882546940739 
909	 0,403569771642074 
910	 0,402468862370258 
911	 0,402627183036509 
912	 0,403460922430395 
913	 0,404477043030188 
914	 0,404539510938665 
915	 0,403983633614473 
916	 0,403360985839809 
917	 0,40340634259669 
918	 0,403784008723475 
919	 0,403099201770361 
920	 0,403170734565303 
921	 0,404077024885843 
922	 0,403049772614789 
923	 0,401870250461224 
924	 0,402082418425905 
925	 0,402700331038685 
926	 0,403179399718147 
927	 0,402891318912534 
928	 0,401734933831117 
929	 0,400225362306682 
930	 0,400277910971348 
931	 0,400248465900393 
932	 0,399276830858242 
933	 0,398556470742802 
934	 0,39845195723317 
935	 0,39919861177908 
936	 0,399587343812684 
937	 0,399096156204317 
938	 0,397020520679823 
939	 0,395849309280171 
940	 0,396255439432176 
941	 0,396072208232219 
942	 0,395450018511128 
943	 0,394690503703035 
944	 0,394489960706995 
945	 0,394202053476249 
946	 0,392417901794214 
947	 0,390955533214029 
948	 0,390046072288715 
949	 0,388492852272699 
950	 0,3867091740349 
951	 0,385087264582128 
952	 0,384422867408523 
953	 0,384310115992902 
954	 0,384103159578766 
955	 0,38306293494106 
956	 0,381258719115576 
957	 0,379193319624519 
958	 0,378037029297826 
959	 0,378123989556082 
960	 0,378742669683573 
961	 0,37861997002988 
962	 0,37704922608858 
963	 0,376486313229513 
964	 0,376571854868108 
965	 0,376198750364467 
966	 0,375957840768863 
967	 0,375668328962134 
968	 0,374249280730405 
969	 0,373811545993545 
970	 0,374789609740707 
971	 0,37407050942842 
972	 0,373619494961499 
973	 0,375050006775305 
974	 0,373673502979828 
975	 0,371698125421144 
976	 0,374435349921444 
977	 0,375359341032587 
978	 0,373806019813378 
979	 0,37388160344897 
980	 0,374885470185773 
981	 0,376072818677548 
982	 0,374922739419851 
983	 0,37386812662004 
984	 0,375395369574329 
985	 0,376433465814072 
986	 0,376594171091814 
987	 0,376240573973106 
988	 0,376251416144458 
989	 0,376622343475778 
990	 0,376189548413493 
991	 0,375685669602336 
992	 0,375652463448916 
993	 0,376733053072352 
994	 0,377995074423527 
995	 0,378390984436289 
996	 0,3778345741675 
997	 0,377353451331347 
998	 0,379041731659215 
999	 0,37865759824717 
1000	 0,376670407133941 
1001	 0,379220539035772 
1002	 0,381700012961247 
1003	 0,38193380142295 
1004	 0,382121180808729 
1005	 0,381727470540727 
1006	 0,3806115893369 
1007	 0,384798543561771 
1008	 0,390147088685366 
1009	 0,387761599919102 
1010	 0,385157139731499 
1011	 0,384285902669254 
1012	 0,38439031610121 
1013	 0,384439261665997 
1014	 0,384267620925554 
1015	 0,385888375124113 
1016	 0,387445652177197 
1017	 0,387314251139128 
1018	 0,386363361329792 
1019	 0,385830656491709 
1020	 0,387258599281173 
1021	 0,387903684627892 
1022	 0,388263462601779 
1023	 0,391801442152809 
1024	 0,393950439286079 
1025	 0,393692074451115 
1026	 0,393988471886003 
1027	 0,395383026439499 
1028	 0,397587363307698 
1029	 0,39642638289479 
1030	 0,394192119728725 
1031	 0,394049907435344 
1032	 0,394492308902789 
1033	 0,394907808509729 
1034	 0,39455051720373 
1035	 0,395410587011989 
1036	 0,39765130562304 
1037	 0,400476703028877 
1038	 0,398127771865059 
1039	 0,39145535600253 
1040	 0,398878574295099 
1041	 0,407082725324359 
1042	 0,404346902123865 
1043	 0,396812005848879 
1044	 0,392384695261658 
1045	 0,399678160709322 
1046	 0,400437281671234 
1047	 0,396433335394618 
1048	 0,401690091298069 
1049	 0,402808916207812 
1050	 0,398658153384603 
1051	 0,40106554075599 
1052	 0,404814465082286 
1053	 0,406034946039439 
1054	 0,400075441285355 
1055	 0,395836006273387 
1056	 0,400676852311312 
1057	 0,407031623190481 
1058	 0,406384688105011 
1059	 0,390213990163898 
1060	 0,385251979462297 
1061	 0,392429535464987 
1062	 0,399492646586603 
1063	 0,403568662859885 
1064	 0,403018715976444 
1065	 0,397057076120156 
1066	 0,392658865279244 
1067	 0,392523814282159 
1068	 0,390132227657252 
1069	 0,390643631729265 
1070	 0,397024023069801 
1071	 0,40218716391615 
1072	 0,400684933129471 
1073	 0,388899546637458 
1074	 0,391242132482074 
1075	 0,402904707825595 
