Wavelength	SCO-GRA00579.asd
325	 0,456212791768697 
326	 0,298263929908814 
327	 0,279378444103902 
328	 0,583184073001201 
329	 0,537721792098033 
330	 0,398824117380809 
331	 0,318087093694217 
332	 0,27118663469188 
333	 0,261460961767948 
334	 0,310914784780832 
335	 0,336581772335614 
336	 0,323335558077326 
337	 0,389731712223833 
338	 0,408839382313729 
339	 0,284819092477704 
340	 0,235594886089248 
341	 0,248395469919287 
342	 0,230207534651497 
343	 0,216796229012982 
344	 0,210017965456518 
345	 0,174325975720531 
346	 0,150455266928907 
347	 0,170978511921803 
348	 0,226005662760113 
349	 0,272686935683453 
350	 0,217924817417617 
351	 0,188647173502047 
352	 0,22023162060438 
353	 0,252060906120887 
354	 0,263913446217751 
355	 0,240487147461461 
356	 0,216959318522057 
357	 0,209767392431479 
358	 0,230853998231898 
359	 0,248313540488672 
360	 0,245340818816405 
361	 0,224416643156407 
362	 0,207890069180911 
363	 0,222047301326664 
364	 0,243970899245276 
365	 0,257812561698901 
366	 0,23158943610004 
367	 0,220249943920248 
368	 0,250508911845744 
369	 0,238070613400675 
370	 0,210237322216 
371	 0,232487545521309 
372	 0,232376381922744 
373	 0,205658697213448 
374	 0,222882975442546 
375	 0,24403744477361 
376	 0,240955915658387 
377	 0,243439819174337 
378	 0,250919394024033 
379	 0,252631696731064 
380	 0,253229879648121 
381	 0,251891589392892 
382	 0,237873359266148 
383	 0,225820507038378 
384	 0,229975147582303 
385	 0,237474160083992 
386	 0,243583427277027 
387	 0,24489550873574 
388	 0,246635601743653 
389	 0,250864645515588 
390	 0,260236308150508 
391	 0,261461754757363 
392	 0,238442078390309 
393	 0,243060622036919 
394	 0,269517377314317 
395	 0,266095458527105 
396	 0,257156786182508 
397	 0,253540137749696 
398	 0,239751771359522 
399	 0,231777026983745 
400	 0,255642280123885 
401	 0,260724384101979 
402	 0,243726626477031 
403	 0,243187010476059 
404	 0,24771173322333 
405	 0,248588303993513 
406	 0,242550778244552 
407	 0,235995812741924 
408	 0,242539683604937 
409	 0,24809491018667 
410	 0,248983236322661 
411	 0,250579291473878 
412	 0,25090561352008 
413	 0,248181859984128 
414	 0,248814909923624 
415	 0,251003045320308 
416	 0,247022231942033 
417	 0,244290281453608 
418	 0,245594755090589 
419	 0,24796913051889 
420	 0,248814053290501 
421	 0,245404289343649 
422	 0,245030801960304 
423	 0,246829293465724 
424	 0,24155142747717 
425	 0,238680107195499 
426	 0,243272374018106 
427	 0,245410143061295 
428	 0,245357680673645 
429	 0,246013069738275 
430	 0,246492322387882 
431	 0,246461926142257 
432	 0,245007130297513 
433	 0,244477262546203 
434	 0,246760073697017 
435	 0,248765724191995 
436	 0,248654702113915 
437	 0,242651502150752 
438	 0,240338713588178 
439	 0,244550937508658 
440	 0,246224571198883 
441	 0,245805080713116 
442	 0,244987775869997 
443	 0,244431532485802 
444	 0,244478722059079 
445	 0,245396870097702 
446	 0,245742054585132 
447	 0,244899767379811 
448	 0,246109897806835 
449	 0,247890045802276 
450	 0,246766325000039 
451	 0,245095420364493 
452	 0,244049991770144 
453	 0,245181561897375 
454	 0,246538128157333 
455	 0,246453982149665 
456	 0,248886077892579 
457	 0,252458060841608 
458	 0,251799893498948 
459	 0,249902018295487 
460	 0,24829022575779 
461	 0,247809282979868 
462	 0,248760187276373 
463	 0,251346254511267 
464	 0,252364946220421 
465	 0,251087695173705 
466	 0,24776759180504 
467	 0,24690469994286 
468	 0,250820461519983 
469	 0,251561034827325 
470	 0,249986254193793 
471	 0,250094001571706 
472	 0,251418697929807 
473	 0,253228484951569 
474	 0,252400973341595 
475	 0,25089322099333 
476	 0,250733662604405 
477	 0,249762228631138 
478	 0,248910847259605 
479	 0,252108422484004 
480	 0,253808585319604 
481	 0,252139472609209 
482	 0,253830534790287 
483	 0,256522191921492 
484	 0,255808388566913 
485	 0,253622702602965 
486	 0,251122635823838 
487	 0,250264223029717 
488	 0,251060501986994 
489	 0,253169656111715 
490	 0,253372658211025 
491	 0,252345672507509 
492	 0,253103336189712 
493	 0,252932386072278 
494	 0,251578834306407 
495	 0,252738299731575 
496	 0,25429303462101 
497	 0,253630456412703 
498	 0,254318277855771 
499	 0,255746725350038 
500	 0,25327299256283 
501	 0,252135551033867 
502	 0,254778427845736 
503	 0,255165942165818 
504	 0,25407769313612 
505	 0,254291722052997 
506	 0,25394446361051 
507	 0,25342062405928 
508	 0,256664924093263 
509	 0,259359572730312 
510	 0,257709069804435 
511	 0,256448118671947 
512	 0,256600418823781 
513	 0,258502370328482 
514	 0,259187159468548 
515	 0,257876117623455 
516	 0,259010116611353 
517	 0,261115296205681 
518	 0,261625987360521 
519	 0,261061822135709 
520	 0,26004599459964 
521	 0,260364006927411 
522	 0,260928000243722 
523	 0,260898304179134 
524	 0,26033726385718 
525	 0,259741458894393 
526	 0,260296563990288 
527	 0,260307602846667 
528	 0,259470379025886 
529	 0,259596631205674 
530	 0,259870867031448 
531	 0,259237175969873 
532	 0,25923878375505 
533	 0,259971369305712 
534	 0,260718875461628 
535	 0,260977813757935 
536	 0,26048949849861 
537	 0,259913659435444 
538	 0,259524706029325 
539	 0,259600026013262 
540	 0,259855442180943 
541	 0,260111808291608 
542	 0,259973525663427 
543	 0,260134069669786 
544	 0,26121359054696 
545	 0,261521647144652 
546	 0,261129760517557 
547	 0,261253592044356 
548	 0,261382656854694 
549	 0,261324440209028 
550	 0,261408991467021 
551	 0,261537192870802 
552	 0,261522684782906 
553	 0,261171014367254 
554	 0,260596282354202 
555	 0,260409979978531 
556	 0,26049949761714 
557	 0,260726544690321 
558	 0,260791266642911 
559	 0,260599990217257 
560	 0,260012055012777 
561	 0,259789466996139 
562	 0,26013270694098 
563	 0,26009362037434 
564	 0,259820860119072 
565	 0,259626243859896 
566	 0,259654855845223 
567	 0,259918629197962 
568	 0,260231260439347 
569	 0,260703679081812 
570	 0,261386468053899 
571	 0,262035745924825 
572	 0,262596706996928 
573	 0,263046790231086 
574	 0,263550464341436 
575	 0,264144351911802 
576	 0,264718098954093 
577	 0,265020736103098 
578	 0,26482675579725 
579	 0,266025238795624 
580	 0,268311939283879 
581	 0,269388828172476 
582	 0,270128509415643 
583	 0,270963809010319 
584	 0,271289589702261 
585	 0,271704579426644 
586	 0,273396613361148 
587	 0,274681631659384 
588	 0,275074495414448 
589	 0,274936940109134 
590	 0,275017155955527 
591	 0,275956674465135 
592	 0,276753150975946 
593	 0,277253637059357 
594	 0,27776395305804 
595	 0,277596045453902 
596	 0,276746703962492 
597	 0,277418140377083 
598	 0,278568900385217 
599	 0,278302127986624 
600	 0,278291511424339 
601	 0,278723444783636 
602	 0,278558183645595 
603	 0,27807332822789 
604	 0,277524305577422 
605	 0,277004338241227 
606	 0,276567026505052 
607	 0,276227166199843 
608	 0,276141903427327 
609	 0,276212863443791 
610	 0,27552833955861 
611	 0,274817117461192 
612	 0,275054030818041 
613	 0,274670086018058 
614	 0,273794207685048 
615	 0,274213832691392 
616	 0,274572136072819 
617	 0,274051059629636 
618	 0,273647791733582 
619	 0,273444739303186 
620	 0,273274448530143 
621	 0,273486370083 
622	 0,273896902510734 
623	 0,273053230751251 
624	 0,272328482233613 
625	 0,273146285080365 
626	 0,273435152377012 
627	 0,273189034651502 
628	 0,273823927352877 
629	 0,274102683995383 
630	 0,27361736654632 
631	 0,274167992545368 
632	 0,275470804443717 
633	 0,276791824484595 
634	 0,277013116939222 
635	 0,276229291100689 
636	 0,276379985885188 
637	 0,277009350064377 
638	 0,277656347569676 
639	 0,278116120425508 
640	 0,278634885787085 
641	 0,280074076830096 
642	 0,281144372971431 
643	 0,281377352978532 
644	 0,281548149124817 
645	 0,281732931711406 
646	 0,2819352475652 
647	 0,281823364501332 
648	 0,28148809929658 
649	 0,281632001609273 
650	 0,281360699749909 
651	 0,280178956427177 
652	 0,279364939230747 
653	 0,278961609160525 
654	 0,278674560300998 
655	 0,278107127095133 
656	 0,277140150139362 
657	 0,276127409070311 
658	 0,274932032761387 
659	 0,273407231531763 
660	 0,271874649612493 
661	 0,270476120730647 
662	 0,269365830934777 
663	 0,268253746479043 
664	 0,267070972819822 
665	 0,266472921381329 
666	 0,266104066089832 
667	 0,265297369576025 
668	 0,26470159323238 
669	 0,264401830053268 
670	 0,263986891794066 
671	 0,263636694640069 
672	 0,263497194720989 
673	 0,263422297126937 
674	 0,263459095076385 
675	 0,263859181615268 
676	 0,263958364164414 
677	 0,263616894223029 
678	 0,263630287755587 
679	 0,263763683523906 
680	 0,263663913446798 
681	 0,263754015813473 
682	 0,264223708579251 
683	 0,265336399174781 
684	 0,266465203679486 
685	 0,267322108216391 
686	 0,268908851070831 
687	 0,270864515176752 
688	 0,272288850413584 
689	 0,274155238634336 
690	 0,276818976697117 
691	 0,28030572278694 
692	 0,284412142154103 
693	 0,288912458671743 
694	 0,293365346473914 
695	 0,298080363609437 
696	 0,304092537510941 
697	 0,31050680920318 
698	 0,316953367012852 
699	 0,323727405372119 
700	 0,330830904181002 
701	 0,338225163442089 
702	 0,345423362120221 
703	 0,352343231278451 
704	 0,359241755174257 
705	 0,366110668623421 
706	 0,372888509931646 
707	 0,379037631240458 
708	 0,384694134883658 
709	 0,390279264578032 
710	 0,395543286417196 
711	 0,400439505417147 
712	 0,405109372399326 
713	 0,409525173248457 
714	 0,413623794298405 
715	 0,417145114489561 
716	 0,420216532106764 
717	 0,423254265589608 
718	 0,426180086673715 
719	 0,428984751430096 
720	 0,431715320492976 
721	 0,434255008703699 
722	 0,43646017989899 
723	 0,438139748314015 
724	 0,439471452849684 
725	 0,441147024761517 
726	 0,442789060614927 
727	 0,444148188212355 
728	 0,445196213013918 
729	 0,44612651885623 
730	 0,447253421018624 
731	 0,448700547430757 
732	 0,450265869419824 
733	 0,450929860682193 
734	 0,451434716103103 
735	 0,45241733014877 
736	 0,452962268229569 
737	 0,453282715211582 
738	 0,454369718877196 
739	 0,455053057240934 
740	 0,455093394238711 
741	 0,455855637097697 
742	 0,456658733554718 
743	 0,456617818935935 
744	 0,457080069274503 
745	 0,458110067139018 
746	 0,459000632148783 
747	 0,459499233521821 
748	 0,459538104305378 
749	 0,459816809690673 
750	 0,460373187118344 
751	 0,461125902798256 
752	 0,461709553619348 
753	 0,46196130169506 
754	 0,461704146397013 
755	 0,461723608369733 
756	 0,462515159492315 
757	 0,462960073555742 
758	 0,46311807963829 
759	 0,463491116638117 
760	 0,463827608898101 
761	 0,464093752629651 
762	 0,464499525208699 
763	 0,464812002809836 
764	 0,464823053330868 
765	 0,464921075222149 
766	 0,465108459477233 
767	 0,465118103245415 
768	 0,465434180105218 
769	 0,466160051913995 
770	 0,466790892740596 
771	 0,466934196823548 
772	 0,466231713344707 
773	 0,466281461559763 
774	 0,467073235532475 
775	 0,467329714739989 
776	 0,467579510174843 
777	 0,468019221547241 
778	 0,46815025191986 
779	 0,468213992089387 
780	 0,468636999164628 
781	 0,468919043296458 
782	 0,469027651443759 
783	 0,469360731764347 
784	 0,469616718667796 
785	 0,469649524102627 
786	 0,470033645197485 
787	 0,470497545235693 
788	 0,470418196229606 
789	 0,470314025898471 
790	 0,470344912266458 
791	 0,470442019966575 
792	 0,470626000975412 
793	 0,470921778394742 
794	 0,471445333094225 
795	 0,472018415821103 
796	 0,472245436434626 
797	 0,472435258586672 
798	 0,472639276979819 
799	 0,472595212349061 
800	 0,472499903193138 
801	 0,472573674316177 
802	 0,473162637912715 
803	 0,473884653956195 
804	 0,473581086905473 
805	 0,473453464912944 
806	 0,473892151689391 
807	 0,474410912081076 
808	 0,474736445146698 
809	 0,474635432328465 
810	 0,474603104102648 
811	 0,474722579080843 
812	 0,474890760234559 
813	 0,475042105335051 
814	 0,475208186419537 
815	 0,4758098070841 
816	 0,476355337861825 
817	 0,476253738266134 
818	 0,476479586682918 
819	 0,477026174844055 
820	 0,477212793632071 
821	 0,477227753802747 
822	 0,477164668468852 
823	 0,477044486894392 
824	 0,477077966484707 
825	 0,477510866463341 
826	 0,477979372722153 
827	 0,478328849866668 
828	 0,478418916495111 
829	 0,478468176441019 
830	 0,478576929560519 
831	 0,478507017448972 
832	 0,478547525134333 
833	 0,47910564321842 
834	 0,479442190426419 
835	 0,479450714986047 
836	 0,479409170677672 
837	 0,479573786859562 
838	 0,480036991544939 
839	 0,480375635999751 
840	 0,480380638822783 
841	 0,479847827439891 
842	 0,479893066652495 
843	 0,480524165766808 
844	 0,480783125967024 
845	 0,48067804750092 
846	 0,480335255321162 
847	 0,480654898724999 
848	 0,481347175753194 
849	 0,481855911995869 
850	 0,482024511566063 
851	 0,481877545100694 
852	 0,48165706516621 
853	 0,481653983641212 
854	 0,482026217441643 
855	 0,482585782589016 
856	 0,483061581206166 
857	 0,48313693443783 
858	 0,482893745435994 
859	 0,482569327040754 
860	 0,482813781092606 
861	 0,483057997024878 
862	 0,483020145979144 
863	 0,482945843724566 
864	 0,482962705889201 
865	 0,483197619547304 
866	 0,483489748699723 
867	 0,483683462950302 
868	 0,483336772910179 
869	 0,483688763853991 
870	 0,484954817182366 
871	 0,484525769370608 
872	 0,483655284357241 
873	 0,484092808403718 
874	 0,48412659762833 
875	 0,483917783306592 
876	 0,48508746339884 
877	 0,485704136359509 
878	 0,485155327057527 
879	 0,485032948948146 
880	 0,485294487163801 
881	 0,485734887631361 
882	 0,48598925478252 
883	 0,486112490596621 
884	 0,486537183049009 
885	 0,486674482391788 
886	 0,486470482271733 
887	 0,486771111623973 
888	 0,487253472693849 
889	 0,487566343718669 
890	 0,487889392203757 
891	 0,488020218446177 
892	 0,487440082554509 
893	 0,4871431137854 
894	 0,487352693745117 
895	 0,487344314594631 
896	 0,487510243448445 
897	 0,488112782961346 
898	 0,488510975092402 
899	 0,488653609220428 
900	 0,488637716255066 
901	 0,488828498063528 
902	 0,489169515565609 
903	 0,489027474770158 
904	 0,488651929334751 
905	 0,488311138160875 
906	 0,488655752715982 
907	 0,489284972980923 
908	 0,489520001747439 
909	 0,489257016476464 
910	 0,488709793050345 
911	 0,488566595730251 
912	 0,488952561494273 
913	 0,489733645632209 
914	 0,489655989050683 
915	 0,489508400354853 
916	 0,490234152640113 
917	 0,490716384150024 
918	 0,490546451746382 
919	 0,489099499726104 
920	 0,488877498858519 
921	 0,490267572409821 
922	 0,490467385124851 
923	 0,489808488657356 
924	 0,48885990316499 
925	 0,489320611815856 
926	 0,490578214856011 
927	 0,49104576169645 
928	 0,490785128475803 
929	 0,490085381954469 
930	 0,49009997856324 
931	 0,490060958030424 
932	 0,489544068152231 
933	 0,488810007810598 
934	 0,488622457920866 
935	 0,489838335302294 
936	 0,491149608676184 
937	 0,491568368966225 
938	 0,48912429207559 
939	 0,487878428327737 
940	 0,488975871548272 
941	 0,489238931138371 
942	 0,489035015128771 
943	 0,488868657487633 
944	 0,488980190624833 
945	 0,489036656291159 
946	 0,48832013145061 
947	 0,488031687371025 
948	 0,488061058666297 
949	 0,486696626922815 
950	 0,485235944909168 
951	 0,484352784073216 
952	 0,482909357393756 
953	 0,482250804973073 
954	 0,483908857859483 
955	 0,483837581648709 
956	 0,482137790869118 
957	 0,481232794925061 
958	 0,481588498549819 
959	 0,482839226569 
960	 0,482074659652807 
961	 0,481453489605517 
962	 0,482407800463042 
963	 0,481871160963155 
964	 0,480677059020419 
965	 0,480723018671397 
966	 0,481450097582832 
967	 0,482342354590344 
968	 0,482154164149666 
969	 0,482566919914476 
970	 0,483709823784237 
971	 0,482059538159309 
972	 0,481103436519568 
973	 0,48371362224062 
974	 0,483314514541996 
975	 0,481098638715568 
976	 0,481166537923495 
977	 0,481415814737204 
978	 0,48166032429599 
979	 0,483134283660211 
980	 0,484130426479756 
981	 0,483973997913743 
982	 0,484295155119065 
983	 0,484522994611692 
984	 0,484054484110909 
985	 0,484378466423432 
986	 0,484939700625432 
987	 0,484143411320662 
988	 0,483647405608417 
989	 0,483767058506429 
990	 0,483707095759034 
991	 0,484092951328641 
992	 0,484983492545424 
993	 0,484782882598709 
994	 0,484311951208934 
995	 0,484628295230548 
996	 0,486411866576897 
997	 0,488582688657834 
998	 0,488811957766872 
999	 0,488494686341665 
1000	 0,488201923904761 
1001	 0,488456500704257 
1002	 0,488513258643286 
1003	 0,488240906793056 
1004	 0,48932433527237 
1005	 0,489706852136801 
1006	 0,487819024472978 
1007	 0,490376206328885 
1008	 0,494783428181671 
1009	 0,494545947601838 
1010	 0,493960533601008 
1011	 0,493433638664625 
1012	 0,490150169374521 
1013	 0,489151994430775 
1014	 0,492132690631293 
1015	 0,495226679077447 
1016	 0,496088672663352 
1017	 0,4935876665473 
1018	 0,49465555380196 
1019	 0,496644307393127 
1020	 0,494202948042978 
1021	 0,493524033541519 
1022	 0,495552660975452 
1023	 0,499136055913235 
1024	 0,499394519463072 
1025	 0,495997036361747 
1026	 0,496564413764007 
1027	 0,496576093519352 
1028	 0,493862924494574 
1029	 0,49597244505696 
1030	 0,497619661053431 
1031	 0,492422047975651 
1032	 0,490943098024928 
1033	 0,493603874546633 
1034	 0,496816596122911 
1035	 0,501451669605776 
1036	 0,505864477925165 
1037	 0,504723242354748 
1038	 0,502189221704625 
1039	 0,500872093315594 
1040	 0,503014814712994 
1041	 0,503862971336659 
1042	 0,499873458057925 
1043	 0,496185166833332 
1044	 0,496812987303651 
1045	 0,505423329690777 
1046	 0,511724938882349 
1047	 0,513330526529908 
1048	 0,510787906287879 
1049	 0,506862590200196 
1050	 0,50347909322867 
1051	 0,501679076298256 
1052	 0,506173759200813 
1053	 0,516002886105557 
1054	 0,516521581926019 
1055	 0,505878880359895 
1056	 0,487059883672526 
1057	 0,490277446392672 
1058	 0,502565775365536 
1059	 0,499710948435007 
1060	 0,49817075727935 
1061	 0,498698226332228 
1062	 0,495430346813471 
1063	 0,497054031695801 
1064	 0,50370388776636 
1065	 0,506722005005101 
1066	 0,508484269145783 
1067	 0,508454051282206 
1068	 0,497835020379897 
1069	 0,495210217726697 
1070	 0,510132330179686 
1071	 0,504809726884785 
1072	 0,501208914554403 
1073	 0,526586781224587 
1074	 0,519425521421357 
1075	 0,496160495326529 
