Wavelength	SCO-GRA00041.asd
325	 0,257619114724584 
326	 0,170893498257292 
327	 0,107587683739896 
328	 0,131403317824636 
329	 4,06863194872265E-02 
330	 1,51326343038506E-02 
331	 0,2035061642039 
332	 0,156568801556001 
333	-2,22211492550926E-02 
334	 1,87109450166601E-03 
335	 8,17288145278088E-02 
336	 0,14216462521846 
337	 0,146850490755535 
338	 0,110049566868949 
339	 5,03074952855414E-02 
340	 4,85395949561058E-02 
341	 8,43484120343288E-02 
342	 0,106702521765814 
343	 7,36087315184974E-02 
344	-1,87079229032236E-03 
345	 3,63291915768303E-02 
346	 8,78457889140333E-02 
347	 7,58235193275739E-02 
348	 1,28475022503421E-02 
349	-6,25787603632057E-02 
350	-3,21359295732617E-02 
351	 1,87963109429348E-02 
352	 5,01816919170607E-02 
353	 4,94365725350739E-02 
354	 4,12888571504733E-02 
355	 5,07489784709311E-02 
356	 4,18727602816816E-02 
357	 2,35658374097826E-02 
358	 5,18249156961799E-02 
359	 5,86356832557891E-02 
360	 2,26503260365514E-02 
361	 3,66301267417146E-02 
362	 6,13358640668484E-02 
363	 3,17619086844425E-02 
364	 3,36632128285314E-02 
365	 6,12642512750688E-02 
366	 2,91575260788189E-02 
367	-4,52286351261503E-03 
368	-2,24220414617477E-03 
369	-5,39605737176736E-03 
370	-4,73606023054542E-03 
371	 0,023903669939955 
372	 5,61335898698612E-02 
373	 7,15941939834582E-02 
374	 3,00338191020003E-02 
375	-1,32034275930723E-03 
376	 3,02018769444193E-02 
377	 2,98086234842297E-02 
378	 7,01922224568006E-03 
379	 1,27350278146804E-02 
380	 1,38362377414737E-02 
381	 4,59944213272232E-03 
382	 1,05997515094018E-02 
383	 1,90111854587909E-02 
384	 1,84749522893617E-02 
385	 1,17485680855559E-02 
386	 5,89724761712549E-03 
387	 1,85582796097529E-02 
388	 2,04543465903968E-02 
389	 6,23529864300636E-03 
390	 1,42685316405012E-02 
391	 2,79457058376569E-02 
392	 0,024355895529029 
393	 2,22497638264315E-02 
394	 2,17311934260563E-02 
395	 9,73979298447384E-03 
396	 2,50148290556941E-03 
397	 7,90504370871475E-03 
398	 1,42358367051293E-02 
399	 1,81991510690943E-02 
400	 1,73797388270531E-02 
401	 1,57947615140604E-02 
402	 1,46779925733501E-02 
403	 1,32189333781393E-02 
404	 1,41152842335512E-02 
405	 1,85632351356421E-02 
406	 0,019762522222648 
407	 1,83349427043808E-02 
408	 1,71326676935575E-02 
409	 1,71028885206069E-02 
410	 1,76698310167972E-02 
411	 1,37629135969749E-02 
412	 1,12350775120632E-02 
413	 1,52383635478879E-02 
414	 1,47584895239594E-02 
415	 0,011519015123444 
416	 1,52842091567288E-02 
417	 1,76942641693756E-02 
418	 1,49253168574831E-02 
419	 5,29883814211302E-03 
420	-1,80950663170564E-03 
421	 5,34121522094546E-03 
422	 1,11167815307392E-02 
423	 0,012560461564306 
424	 1,25294918443639E-02 
425	 1,30781621397766E-02 
426	 1,51053132470895E-02 
427	 1,47637512790572E-02 
428	 1,27329379823568E-02 
429	 1,08517822663277E-02 
430	 1,08252357667064E-02 
431	 1,25797288841195E-02 
432	 1,25772647168495E-02 
433	 1,43442371176039E-02 
434	 2,03735895539015E-02 
435	 1,83915127794518E-02 
436	 1,07551124917056E-02 
437	 8,31240206718645E-03 
438	 8,99907604882353E-03 
439	 1,16355420430308E-02 
440	 1,27046286057061E-02 
441	 1,30015443460796E-02 
442	 1,40319641324835E-02 
443	 1,23565089520276E-02 
444	 9,39035329988475E-03 
445	 1,29123176419808E-02 
446	 1,34433949266166E-02 
447	 6,4440303681751E-03 
448	 6,83904674706831E-03 
449	 1,23760311502869E-02 
450	 1,54843820173414E-02 
451	 1,46492877742642E-02 
452	 1,10611364660032E-02 
453	 0,01371172282809 
454	 1,67138921872424E-02 
455	 1,45647557477976E-02 
456	 1,39383457417197E-02 
457	 1,48791163855431E-02 
458	 0,014115716815962 
459	 1,29435430567046E-02 
460	 1,21051298488743E-02 
461	 1,28498053744568E-02 
462	 1,35703824180872E-02 
463	 1,19940919931143E-02 
464	 1,25675624935308E-02 
465	 1,48919359962268E-02 
466	 1,37229714235272E-02 
467	 1,22649135770163E-02 
468	 1,24153094499338E-02 
469	 0,010531448188377 
470	 7,96193140569377E-03 
471	 8,02822381925247E-03 
472	 1,04134580916867E-02 
473	 0,014004964419352 
474	 1,43939652695597E-02 
475	 1,37218222304254E-02 
476	 1,42555846916928E-02 
477	 1,31965478618837E-02 
478	 1,13799801476276E-02 
479	 1,26769653214987E-02 
480	 1,31630140270215E-02 
481	 1,14338826136525E-02 
482	 1,14593837975673E-02 
483	 1,22375697913711E-02 
484	 1,16549208716237E-02 
485	 1,19524957799145E-02 
486	 1,31505950241746E-02 
487	 1,29635389949932E-02 
488	 0,013407273230638 
489	 1,56157764533321E-02 
490	 1,45409660745487E-02 
491	 0,011295770313352 
492	 9,87828427126698E-03 
493	 0,010413272767519 
494	 1,24314185135252E-02 
495	 1,23706391182207E-02 
496	 1,17670598118582E-02 
497	 1,26393878730768E-02 
498	 1,28630355951926E-02 
499	 1,24156146686204E-02 
500	 0,01264424631997 
501	 1,32316166178929E-02 
502	 1,37020585350475E-02 
503	 1,15011403846765E-02 
504	 9,17429216952472E-03 
505	 1,17369956172749E-02 
506	 1,34175899794761E-02 
507	 1,26583632159369E-02 
508	 0,010818043831385 
509	 9,46945885187576E-03 
510	 9,96875779761446E-03 
511	 1,18571420029983E-02 
512	 1,37762278183465E-02 
513	 1,26250129741199E-02 
514	 1,13802928909303E-02 
515	 1,12712598764629E-02 
516	 1,09792411412436E-02 
517	 1,07343018807692E-02 
518	 1,09749007521836E-02 
519	 1,22736351280904E-02 
520	 1,40293041540034E-02 
521	 1,38424549594625E-02 
522	 0,012778845235392 
523	 1,17583625869683E-02 
524	 1,14711213566395E-02 
525	 1,16579226065944E-02 
526	 1,13700160703433E-02 
527	 1,14681252201539E-02 
528	 1,19697144034091E-02 
529	 1,13941030092816E-02 
530	 1,07668067850302E-02 
531	 1,13487639718723E-02 
532	 1,14985026540118E-02 
533	 1,12493749855447E-02 
534	 1,20055925476189E-02 
535	 1,24735295585866E-02 
536	 1,19794870069617E-02 
537	 1,17707751093807E-02 
538	 0,011638756842031 
539	 1,07958913194398E-02 
540	 1,05732840321962E-02 
541	 1,12440349220436E-02 
542	 1,21079699753535E-02 
543	 1,23076615023935E-02 
544	 1,11682587744502E-02 
545	 1,14092538800596E-02 
546	 0,012683425663201 
547	 1,24873859196811E-02 
548	 1,16321788738687E-02 
549	 1,07384370282036E-02 
550	 1,14149165592989E-02 
551	 1,24462756308576E-02 
552	 1,16431940193241E-02 
553	 1,15670183086739E-02 
554	 1,24296950453645E-02 
555	 0,012030749091758 
556	 1,15318464269862E-02 
557	 1,18941191811957E-02 
558	 1,20481630564966E-02 
559	 1,20333187499554E-02 
560	 1,25050009352928E-02 
561	 0,01254901196654 
562	 1,20297110177032E-02 
563	 1,25796436891337E-02 
564	 1,32206669941367E-02 
565	 1,25059641395617E-02 
566	 1,17266723953674E-02 
567	 1,11783910702482E-02 
568	 0,010471791198404 
569	 1,03993373228661E-02 
570	 1,14381049056339E-02 
571	 1,26235627852563E-02 
572	 1,33536077133134E-02 
573	 1,26772619498351E-02 
574	 1,23338675835221E-02 
575	 1,28449204725469E-02 
576	 1,32716670360767E-02 
577	 1,32700267040511E-02 
578	 1,25728948657889E-02 
579	 1,28912512206203E-02 
580	 1,39725426799615E-02 
581	 1,37772622331969E-02 
582	 1,31666021065391E-02 
583	 1,27752824138501E-02 
584	 1,35456892053442E-02 
585	 1,46151049399062E-02 
586	 1,42525077066132E-02 
587	 1,40071506499017E-02 
588	 1,42534381767899E-02 
589	 1,44501706261973E-02 
590	 1,44881957797601E-02 
591	 1,43083307276963E-02 
592	 1,43834917160248E-02 
593	 1,46462971709499E-02 
594	 1,46646642664141E-02 
595	 1,45365518211343E-02 
596	 1,43433247721059E-02 
597	 1,43189462497821E-02 
598	 1,44754354228299E-02 
599	 0,014791985595445 
600	 1,50740718920746E-02 
601	 1,50413507765148E-02 
602	 1,37937297139642E-02 
603	 1,30691869391605E-02 
604	 1,41305342304888E-02 
605	 1,47786071885433E-02 
606	 1,47452223445386E-02 
607	 1,42955531556208E-02 
608	 1,42777780263559E-02 
609	 1,47168462916478E-02 
610	 1,33917224803416E-02 
611	 1,21830724081973E-02 
612	 1,35883219455806E-02 
613	 1,38577001621542E-02 
614	 1,27226566128921E-02 
615	 1,25304570109739E-02 
616	 1,25723156350619E-02 
617	 1,24531674373429E-02 
618	 1,27706133569839E-02 
619	 1,32615077567783E-02 
620	 1,32601716589074E-02 
621	 1,34261998237044E-02 
622	 1,37313160851239E-02 
623	 1,29749742956318E-02 
624	 1,21639119737326E-02 
625	 0,012375835729213 
626	 1,27558550253669E-02 
627	 1,31392775792175E-02 
628	 1,37373707202017E-02 
629	 1,37359932095383E-02 
630	 1,29239690098683E-02 
631	 1,30690151030204E-02 
632	 1,37676742559325E-02 
633	 1,40225689177311E-02 
634	 0,014297754178072 
635	 1,46389307136364E-02 
636	 1,48896460078865E-02 
637	 1,47168982602995E-02 
638	 1,39378381372508E-02 
639	 1,38360921364637E-02 
640	 1,44463055339395E-02 
641	 1,53302687146074E-02 
642	 0,015588038742363 
643	 1,50692808068589E-02 
644	 1,55893787659013E-02 
645	 1,64148447618054E-02 
646	 1,63901259286636E-02 
647	 1,58569500674764E-02 
648	 1,53081223666838E-02 
649	 0,016154487388999 
650	 1,69164154468454E-02 
651	 1,66169257850112E-02 
652	 0,016115635402189 
653	 1,56033363945833E-02 
654	 1,51322374806001E-02 
655	 1,51098213499531E-02 
656	 1,54309859839012E-02 
657	 1,48672950170208E-02 
658	 1,41217263200683E-02 
659	 1,39811230552821E-02 
660	 1,37662401870844E-02 
661	 1,34273240947234E-02 
662	 1,32297676289745E-02 
663	 1,30152855283233E-02 
664	 1,27814334339042E-02 
665	 1,31238657509576E-02 
666	 0,013495817504167 
667	 1,29573770939435E-02 
668	 1,24715254503561E-02 
669	 0,012272902448377 
670	 1,20619158668516E-02 
671	 0,011994142404803 
672	 1,21744468652277E-02 
673	 1,22701034151245E-02 
674	 1,23358269381685E-02 
675	 0,012730970383376 
676	 1,27610409531278E-02 
677	 1,23304769807764E-02 
678	 1,24225697365437E-02 
679	 0,012851436875933 
680	 1,32924106808254E-02 
681	 1,35889314049401E-02 
682	 1,36779055067903E-02 
683	 0,013572125522002 
684	 1,33528294250751E-02 
685	 1,31355046908242E-02 
686	 1,33290369044027E-02 
687	 1,37302855170429E-02 
688	 1,38470479906089E-02 
689	 1,43411629328153E-02 
690	 1,53103596956918E-02 
691	 1,62353467141514E-02 
692	 1,72764365016524E-02 
693	 1,85688037934931E-02 
694	 1,96822723469699E-02 
695	 2,08865263669959E-02 
696	 2,30017913664983E-02 
697	 2,55301155635058E-02 
698	 2,83234697143916E-02 
699	 3,16688227571392E-02 
700	 0,035483806806729 
701	 3,96285473565515E-02 
702	 4,44997423094201E-02 
703	 4,99052038571444E-02 
704	 0,054910382144175 
705	 6,01664076087435E-02 
706	 6,60308644752398E-02 
707	 7,17975270772061E-02 
708	 0,07750955564986 
709	 8,34738649778884E-02 
710	 8,91547694952427E-02 
711	 9,44912213315924E-02 
712	 0,10005402926364 
713	 0,105561035472486 
714	 0,110724693438621 
715	 0,115607920699112 
716	 0,120276066040158 
717	 0,12490616825673 
718	 0,129331492495001 
719	 0,133400701433884 
720	 0,136701901682677 
721	 0,139665679680534 
722	 0,142885186681981 
723	 0,145915913791617 
724	 0,148641977137094 
725	 0,150986104214487 
726	 0,153402631036124 
727	 0,156023788082978 
728	 0,157436653314368 
729	 0,158209480044989 
730	 0,159643222883476 
731	 0,16145265351452 
732	 0,163364837297277 
733	 0,164530223584506 
734	 0,16537378737501 
735	 0,166307089004928 
736	 0,167330214295585 
737	 0,168360440622466 
738	 0,169179214414962 
739	 0,169833677840287 
740	 0,170391235104443 
741	 0,171122795060736 
742	 0,171888313747017 
743	 0,17250098081648 
744	 0,173080501154014 
745	 0,173606901601742 
746	 0,173963372471986 
747	 0,174209162106825 
748	 0,174395347086976 
749	 0,174601034437874 
750	 0,174888702973324 
751	 0,175341453766154 
752	 0,175537923186493 
753	 0,175533088191264 
754	 0,176054595544539 
755	 0,176417638530213 
756	 0,176208887794398 
757	 0,176584007576783 
758	 0,177242703029264 
759	 0,177200539141996 
760	 0,177278093695266 
761	 0,177594180195934 
762	 0,177396343975372 
763	 0,177253688471909 
764	 0,177672805080577 
765	 0,177449091431685 
766	 0,176884509087029 
767	 0,177348997995981 
768	 0,177929259669482 
769	 0,178236927657879 
770	 0,178300098002764 
771	 0,1781876062754 
772	 0,177996832797048 
773	 0,178199668566973 
774	 0,178594642992173 
775	 0,178172750667744 
776	 0,177896907536435 
777	 0,178226986356154 
778	 0,178635953770645 
779	 0,178796020075581 
780	 0,178325519497749 
781	 0,178186042031609 
782	 0,178504221988373 
783	 0,178717964575513 
784	 0,178765316993453 
785	 0,178652806775768 
786	 0,178849376569493 
787	 0,179206824787597 
788	 0,179349240633982 
789	 0,179332999280862 
790	 0,179262902302098 
791	 0,179520388609538 
792	 0,179836185431579 
793	 0,17994812127394 
794	 0,179509248324617 
795	 0,178989454699114 
796	 0,179537594686595 
797	 0,17981176913956 
798	 0,179521125440783 
799	 0,179603689236277 
800	 0,179854837226037 
801	 0,180016234098627 
802	 0,179781298482551 
803	 0,179359964797354 
804	 0,179419838953448 
805	 0,179611175258901 
806	 0,179749070384395 
807	 0,17954145832172 
808	 0,1793071741171 
809	 0,179408780324585 
810	 0,179788584474212 
811	 0,180160444220476 
812	 0,179758180553026 
813	 0,179479593370187 
814	 0,179664856647927 
815	 0,179778930669405 
816	 0,179895662486873 
817	 0,180146580367188 
818	 0,180272973293567 
819	 0,180239667332545 
820	 0,180115826896062 
821	 0,180051910859192 
822	 0,180139624322039 
823	 0,180402591834936 
824	 0,180612071991709 
825	 0,180485964979776 
826	 0,180376079763443 
827	 0,18042597626753 
828	 0,180824914894781 
829	 0,181028003441098 
830	 0,180787923260279 
831	 0,180577779216151 
832	 0,180488845239079 
833	 0,180563931519068 
834	 0,180798236429088 
835	 0,181034510456946 
836	 0,18073626230471 
837	 0,180825074555376 
838	 0,181575842379723 
839	 0,181104223365073 
840	 0,180348612307036 
841	 0,180899518220032 
842	 0,181304203895833 
843	 0,181295017495956 
844	 0,181276563731528 
845	 0,181120806164382 
846	 0,180847333389668 
847	 0,181099545904881 
848	 0,181208485046886 
849	 0,180159100627223 
850	 0,179981494669028 
851	 0,180792560109666 
852	 0,181190505777132 
853	 0,181416506873628 
854	 0,181531293023905 
855	 0,181262428979776 
856	 0,180832926844125 
857	 0,18057635030445 
858	 0,180473391515971 
859	 0,180513745911571 
860	 0,180636212871149 
861	 0,18085835074676 
862	 0,181076953001549 
863	 0,180621912680744 
864	 0,180078631312741 
865	 0,180279033357018 
866	 0,180770999101823 
867	 0,181183573047703 
868	 0,180754494275189 
869	 0,180322138320501 
870	 0,180261993305384 
871	 0,180121313926525 
872	 0,180038941925395 
873	 0,180212569348662 
874	 0,180374376376324 
875	 0,180381522797289 
876	 0,179941874998461 
877	 0,179952997019021 
878	 0,180629655580698 
879	 0,180795122007642 
880	 0,180694237770925 
881	 0,180690402006788 
882	 0,180634439775219 
883	 0,18056050717616 
884	 0,180521059624534 
885	 0,180991193995699 
886	 0,181841097025986 
887	 0,18158746531377 
888	 0,180796393067182 
889	 0,180173861782667 
890	 0,180577822617148 
891	 0,181254455456095 
892	 0,180102153030079 
893	 0,179777295846708 
894	 0,180720657061329 
895	 0,180783517467315 
896	 0,180573018015251 
897	 0,180594017966901 
898	 0,180406959278955 
899	 0,180225588123828 
900	 0,180543715588025 
901	 0,180326715755234 
902	 0,179768259726734 
903	 0,180810520522427 
904	 0,181503769882968 
905	 0,180836256844846 
906	 0,181137793842993 
907	 0,181709100086202 
908	 0,181181161979527 
909	 0,18080190283268 
910	 0,180657109497065 
911	 0,1799381412201 
912	 0,179588378929802 
913	 0,180083884607343 
914	 0,181454045944015 
915	 0,182214562257575 
916	 0,180865570734819 
917	 0,179861638585774 
918	 0,179521335345393 
919	 0,179211995189805 
920	 0,179079009769197 
921	 0,179236022254505 
922	 0,180213400550583 
923	 0,180643202427831 
924	 0,179545677732655 
925	 0,179139105521219 
926	 0,179083768032705 
927	 0,178073332390267 
928	 0,177724641994811 
929	 0,178154630191119 
930	 0,178140190095912 
931	 0,177558080228695 
932	 0,176518075678664 
933	 0,176415436673514 
934	 0,176315934293346 
935	 0,174906190321968 
936	 0,175270500570813 
937	 0,176767575025173 
938	 0,175523144860022 
939	 0,175107626215463 
940	 0,176256949550277 
941	 0,175549215009143 
942	 0,17394014889814 
943	 0,172534503341797 
944	 0,171849689671419 
945	 0,17148172488265 
946	 0,170453246140515 
947	 0,169531795291178 
948	 0,169033038921802 
949	 0,169293980371702 
950	 0,169458090019554 
951	 0,168916696247436 
952	 0,16727632962486 
953	 0,16578682488909 
954	 0,165919953837832 
955	 0,165954564834873 
956	 0,165504385390476 
957	 0,164519356618511 
958	 0,164097159653058 
959	 0,164144529841048 
960	 0,162022907071836 
961	 0,161020024775188 
962	 0,163213093335298 
963	 0,163731406279187 
964	 0,162584342238177 
965	 0,16092075164456 
966	 0,160445982576788 
967	 0,160913833131388 
968	 0,159858073256967 
969	 0,159192899410197 
970	 0,159611411552409 
971	 0,160144408185763 
972	 0,160875604968681 
973	 0,161727392950475 
974	 0,160417925889119 
975	 0,158770102388959 
976	 0,160709372367176 
977	 0,161020522105073 
978	 0,159216581296197 
979	 0,158698751379663 
980	 0,159184994937123 
981	 0,160236498739851 
982	 0,159933452057362 
983	 0,159257140017444 
984	 0,159384597205171 
985	 0,16024847926219 
986	 0,160744134974704 
987	 0,158713341460885 
988	 0,158419493354396 
989	 0,160169977308155 
990	 0,160035175560307 
991	 0,160529329194141 
992	 0,162661078485312 
993	 0,164308219529341 
994	 0,165514735052518 
995	 0,16632657882308 
996	 0,164345754570809 
997	 0,161453758197351 
998	 0,161958563844344 
999	 0,164054327384344 
1000	 0,16606565065129 
1001	 0,163973326914054 
1002	 0,162822170107665 
1003	 0,164426666598683 
1004	 0,162806189839993 
1005	 0,161545540052251 
1006	 0,16417542952053 
1007	 0,165730200752604 
1008	 0,166083315779906 
1009	 0,166630110718124 
1010	 0,165821372600155 
1011	 0,164241632328033 
1012	 0,164924396146555 
1013	 0,165191543303738 
1014	 0,164908367712404 
1015	 0,170079899309968 
1016	 0,173302667736805 
1017	 0,169413287245314 
1018	 0,171440232109647 
1019	 0,175098068190578 
1020	 0,171468392786714 
1021	 0,169568151826401 
1022	 0,170060275462045 
1023	 0,168537188758368 
1024	 0,1674870453551 
1025	 0,168512120085043 
1026	 0,17515635325854 
1027	 0,178306373539538 
1028	 0,173330994203109 
1029	 0,173745343905921 
1030	 0,175877153583444 
1031	 0,174002862618272 
1032	 0,172872766173355 
1033	 0,173010320246563 
1034	 0,173707144689592 
1035	 0,172514389906569 
1036	 0,170283181930062 
1037	 0,172620469706711 
1038	 0,175261102201872 
1039	 0,175963039764568 
1040	 0,173293272698078 
1041	 0,17412734270601 
1042	 0,182182134461864 
1043	 0,180817786178492 
1044	 0,17390311437406 
1045	 0,170410092234814 
1046	 0,174810607004089 
1047	 0,184051072522175 
1048	 0,188492136355732 
1049	 0,186237001996783 
1050	 0,179233586225542 
1051	 0,176369273714303 
1052	 0,177226292025395 
1053	 0,180749995033854 
1054	 0,181631041118525 
1055	 0,180918679050371 
1056	 0,17953926379683 
1057	 0,174475661196885 
1058	 0,170161814463786 
1059	 0,173076491387632 
1060	 0,17959113170355 
1061	 0,184296903787829 
1062	 0,177268267313036 
1063	 0,177485903452215 
1064	 0,185661330466845 
1065	 0,180901592597952 
1066	 0,176605376307631 
1067	 0,178780625330469 
1068	 0,18623873459964 
1069	 0,189664741212614 
1070	 0,183046485129986 
1071	 0,180145005873282 
1072	 0,185932893536073 
1073	 0,201138004872377 
1074	 0,18451743141597 
1075	 0,156909543881443 
