Wavelength	SCO-GRA00260.asd
325	 0,238049558555927 
326	 0,158617298060624 
327	 0,101708517681895 
328	 0,17595029078124 
329	 1,70311298657178E-02 
330	-7,11823891068196E-02 
331	 2,58624268338246E-03 
332	 5,18140349471443E-02 
333	 5,95643896262423E-02 
334	 3,00985407157748E-02 
335	-1,07128851489285E-02 
336	-2,65092704551047E-02 
337	 7,92672337454886E-02 
338	 0,16885361200908 
339	 0,122269607595651 
340	 5,48627055604036E-02 
341	 6,03863567680052E-03 
342	 4,12139189429906E-02 
343	 4,72181865844785E-02 
344	 6,01338811908192E-03 
345	 3,08056923656689E-02 
346	 5,29686732510889E-02 
347	 1,05356889969751E-02 
348	 1,67228384585066E-02 
349	 5,74668127841306E-02 
350	 3,37512875383847E-02 
351	 0,008548149251996 
352	 4,6106888013311E-03 
353	 3,01789256627811E-02 
354	 4,30249256483378E-02 
355	-3,58299120617694E-03 
356	-2,15225488208287E-02 
357	-1,82401947681814E-03 
358	 0,022248205969073 
359	 3,02941185387757E-02 
360	 1,09470957881462E-02 
361	-2,95919048226663E-02 
362	-4,96122917460423E-02 
363	-1,37660725780385E-05 
364	 3,58118706810652E-02 
365	 3,92235217930392E-02 
366	 3,17901608881635E-02 
367	 1,83299954934109E-02 
368	 4,54938624880602E-03 
369	 7,33475120223944E-03 
370	 2,03289466460627E-02 
371	 3,03450155586345E-02 
372	 2,78213357242269E-02 
373	 1,75289888688088E-02 
374	 3,42439781119596E-02 
375	 4,59287184979714E-02 
376	 3,04409477433585E-02 
377	 1,56754881724799E-02 
378	 8,57472013473961E-03 
379	 1,06117438676628E-02 
380	 1,60345896843801E-02 
381	 1,94956445690507E-02 
382	 8,82152490845075E-03 
383	-1,96799382350356E-03 
384	 1,16507414891521E-03 
385	 1,27311433582589E-02 
386	 2,21831958197411E-02 
387	 7,20094411628901E-03 
388	 2,19864141391883E-03 
389	 1,75757775890611E-02 
390	 2,70810249423518E-02 
391	 2,70651107162363E-02 
392	 0,015233374756071 
393	 1,94987188508082E-02 
394	 3,63043893572901E-02 
395	 0,035186859334411 
396	 3,46037814446803E-02 
397	 4,15895667359994E-02 
398	 3,85368064096882E-02 
399	 2,80834741834734E-02 
400	 1,62079219320081E-02 
401	 1,42403648824145E-02 
402	 2,22758129932259E-02 
403	 0,029801724308008 
404	 3,03798035196748E-02 
405	 2,12232343106661E-02 
406	 1,87421660808912E-02 
407	 1,98112256076567E-02 
408	 1,16647400201669E-02 
409	 1,00597554782288E-02 
410	 1,60142004849051E-02 
411	 1,12611952168578E-02 
412	 8,7862620132296E-03 
413	 0,020363637669174 
414	 2,28868121831443E-02 
415	 1,68713561157508E-02 
416	 1,32101298297557E-02 
417	 1,46783442442232E-02 
418	 2,10036562408669E-02 
419	 0,0206796903777 
420	 1,93912037494599E-02 
421	 2,54588824849746E-02 
422	 2,70173956970893E-02 
423	 2,20189504906493E-02 
424	 1,11112408248943E-02 
425	 8,51475591565823E-03 
426	 2,07610374697144E-02 
427	 2,40272192239874E-02 
428	 2,07804701453524E-02 
429	 2,14541734050629E-02 
430	 1,93423238647653E-02 
431	 1,47345573305755E-02 
432	 1,58426756690633E-02 
433	 1,92990129198555E-02 
434	 2,16370161775209E-02 
435	 2,10775348344681E-02 
436	 1,85371726284271E-02 
437	 1,71451821176682E-02 
438	 1,61477654421641E-02 
439	 1,56240013846552E-02 
440	 1,71583411017332E-02 
441	 1,90250052397227E-02 
442	 1,89911040093161E-02 
443	 1,65610915614579E-02 
444	 1,29858717803704E-02 
445	 0,012088528701059 
446	 0,013508448927368 
447	 1,66952909945348E-02 
448	 1,95696001874453E-02 
449	 2,00930265050726E-02 
450	 1,49176099882377E-02 
451	 1,28282862359605E-02 
452	 1,56790523903862E-02 
453	 1,72457974377891E-02 
454	 0,018233191646546 
455	 0,019506400312626 
456	 2,02771372817789E-02 
457	 2,03108075605552E-02 
458	 1,97053829315934E-02 
459	 1,69688765089415E-02 
460	 1,24736670693523E-02 
461	 1,22687752387549E-02 
462	 1,44470622583827E-02 
463	 1,56340838954368E-02 
464	 1,68634795046208E-02 
465	 1,75166416695777E-02 
466	 1,48588628033554E-02 
467	 1,31965173100934E-02 
468	 1,51058939316145E-02 
469	 1,62321236248141E-02 
470	 1,62370749770286E-02 
471	 0,015784691697823 
472	 1,53503456653609E-02 
473	 1,53490479989366E-02 
474	 1,67173703473389E-02 
475	 1,75986529844136E-02 
476	 1,62274175863992E-02 
477	 1,44668743508248E-02 
478	 1,37129046290621E-02 
479	 1,68110672348363E-02 
480	 1,83778439620041E-02 
481	 1,64559486883713E-02 
482	 1,67377696060996E-02 
483	 1,83231514625709E-02 
484	 1,90386535117269E-02 
485	 1,79873658977671E-02 
486	 1,61314006500199E-02 
487	 1,82478233661827E-02 
488	 2,03398950013623E-02 
489	 1,93652860649731E-02 
490	 1,70134548020151E-02 
491	 1,51383805819809E-02 
492	 1,74357206042447E-02 
493	 1,88656622073183E-02 
494	 1,79532464344077E-02 
495	 1,73537433929468E-02 
496	 1,71798008495676E-02 
497	 1,73183644435652E-02 
498	 1,77056186892348E-02 
499	 1,78746655455364E-02 
500	 1,63103393565838E-02 
501	 1,58279213593104E-02 
502	 1,75829572876036E-02 
503	 1,68935789727857E-02 
504	 0,015284827325692 
505	 1,65217554534192E-02 
506	 1,71691422105802E-02 
507	 1,66483792644688E-02 
508	 0,017115094877433 
509	 1,75610202222867E-02 
510	 1,70984518208263E-02 
511	 1,76572621494593E-02 
512	 1,88875376935309E-02 
513	 0,019054966671093 
514	 1,87381002738871E-02 
515	 1,83702001182013E-02 
516	 1,91780101841663E-02 
517	 2,00988580321096E-02 
518	 1,95440131216005E-02 
519	 1,85438937784752E-02 
520	 1,76817877826357E-02 
521	 1,78238698412503E-02 
522	 1,84948853183733E-02 
523	 1,92676179208158E-02 
524	 1,98039423660778E-02 
525	 1,98338424056612E-02 
526	 1,88432631634483E-02 
527	 0,01816558599752 
528	 1,82413734262817E-02 
529	 1,83691458652547E-02 
530	 1,87032032762204E-02 
531	 1,94634030377752E-02 
532	 1,91067107717401E-02 
533	 1,78821051431361E-02 
534	 1,75765910596563E-02 
535	 1,79251549963062E-02 
536	 1,86457070547907E-02 
537	 1,87390000493017E-02 
538	 1,83134896474668E-02 
539	 1,77993459146747E-02 
540	 1,77328793818375E-02 
541	 1,80319259160385E-02 
542	 1,72700719135332E-02 
543	 1,66467625470673E-02 
544	 1,73525485552213E-02 
545	 0,018206184898472 
546	 1,87813464286251E-02 
547	 1,86655947171202E-02 
548	 1,84190282552722E-02 
549	 1,83959421084032E-02 
550	 1,89303790927167E-02 
551	 0,01940510325877 
552	 1,88066087838029E-02 
553	 1,83645081345848E-02 
554	 1,83300155724411E-02 
555	 0,01808656025521 
556	 1,80814294390631E-02 
557	 1,86100534590031E-02 
558	 1,83752765034352E-02 
559	 1,77061037027213E-02 
560	 1,80652583651579E-02 
561	 1,82632049140953E-02 
562	 1,78910719909087E-02 
563	 1,74723674743339E-02 
564	 1,73142832325663E-02 
565	 1,77494633720571E-02 
566	 1,78030126180957E-02 
567	 1,75253070071648E-02 
568	 1,81201008006743E-02 
569	 0,018557666057846 
570	 1,81846702950375E-02 
571	 1,81077189169961E-02 
572	 1,83858521581796E-02 
573	 1,88099003962143E-02 
574	 0,018893221788501 
575	 1,86251706048378E-02 
576	 1,89481029843278E-02 
577	 1,97821281068452E-02 
578	 2,09262989904539E-02 
579	 2,12672967390724E-02 
580	 2,09653601280999E-02 
581	 2,14823217425455E-02 
582	 2,17450464156516E-02 
583	 2,12949829042818E-02 
584	 2,14722801279366E-02 
585	 2,22348218676653E-02 
586	 2,32300117039117E-02 
587	 2,38266135214701E-02 
588	 2,39144622179582E-02 
589	 2,40962411849282E-02 
590	 2,44090897592675E-02 
591	 2,48432501344937E-02 
592	 2,50684792419255E-02 
593	 0,02507917844621 
594	 0,02510074985492 
595	 2,48696510506866E-02 
596	 2,43914096153457E-02 
597	 2,45504611209561E-02 
598	 2,47502963853545E-02 
599	 2,39446203780822E-02 
600	 2,38027984854543E-02 
601	 2,44288447814711E-02 
602	 2,43343191656413E-02 
603	 2,39952826778597E-02 
604	 2,37998274273806E-02 
605	 2,34642853793779E-02 
606	 2,30356190586002E-02 
607	 0,022667318946001 
608	 2,25255612784732E-02 
609	 2,26712803277151E-02 
610	 2,30060748848456E-02 
611	 2,32358204615701E-02 
612	 2,30269295769761E-02 
613	 2,30304835256919E-02 
614	 2,32237403795906E-02 
615	 2,30551988478496E-02 
616	 2,23920579432549E-02 
617	 0,021313410480666 
618	 0,021300982479745 
619	 2,18084008481636E-02 
620	 2,13166508158287E-02 
621	 2,08530380952399E-02 
622	 2,07516103224177E-02 
623	 2,09403421774987E-02 
624	 2,12249991729135E-02 
625	 2,14093697815252E-02 
626	 2,16741048171431E-02 
627	 2,18686736229583E-02 
628	 2,14139668250605E-02 
629	 2,11581319328606E-02 
630	 2,15381459774255E-02 
631	 2,21371024499416E-02 
632	 2,28555408289999E-02 
633	 0,023685198395501 
634	 2,35967573717645E-02 
635	 2,26448263646595E-02 
636	 2,22538684894328E-02 
637	 0,022631283843455 
638	 2,38231976170031E-02 
639	 2,45822550857093E-02 
640	 2,49151585897492E-02 
641	 2,56861612539067E-02 
642	 2,55759097719855E-02 
643	 0,024460342247481 
644	 2,49330414074692E-02 
645	 2,59547392578313E-02 
646	 2,58754032190932E-02 
647	 2,58188763131425E-02 
648	 2,59917712740684E-02 
649	 2,62502308274007E-02 
650	 2,61066251948466E-02 
651	 2,53041068880113E-02 
652	 2,46673294602295E-02 
653	 2,43411482050165E-02 
654	 2,43681879867093E-02 
655	 2,41144346454529E-02 
656	 2,34611648217036E-02 
657	 2,30475817601245E-02 
658	 2,28049313471974E-02 
659	 2,26041033757488E-02 
660	 2,20192428571914E-02 
661	 2,11707120471119E-02 
662	 2,06860144611299E-02 
663	 2,01922581821872E-02 
664	 1,96072658334947E-02 
665	 1,97226402781088E-02 
666	 1,99435351542063E-02 
667	 1,92212569515689E-02 
668	 1,85779086145986E-02 
669	 1,82817356528559E-02 
670	 1,81505936641531E-02 
671	 1,80122744947528E-02 
672	 1,77558869796306E-02 
673	 1,77343641661309E-02 
674	 1,79981945782381E-02 
675	 1,85825603871268E-02 
676	 1,89509631610367E-02 
677	 1,89078491693782E-02 
678	 1,87145716033875E-02 
679	 1,86423227743384E-02 
680	 1,89709315534395E-02 
681	 1,88214698533642E-02 
682	 1,84041902394508E-02 
683	 1,90624345450265E-02 
684	 1,97998387755493E-02 
685	 2,00891261117962E-02 
686	 2,08472681965533E-02 
687	 2,16814354585585E-02 
688	 2,16319700521057E-02 
689	 2,23378802306692E-02 
690	 2,40066893093145E-02 
691	 2,50805333490351E-02 
692	 2,63982035570819E-02 
693	 2,87137379030375E-02 
694	 3,09919658796068E-02 
695	 3,32887950372076E-02 
696	 0,036092492073916 
697	 3,99749707254859E-02 
698	 4,49999552512733E-02 
699	 0,049896550654873 
700	 0,054815872711524 
701	 6,01082645513989E-02 
702	 6,59805587426831E-02 
703	 7,23329752652971E-02 
704	 7,86811013256195E-02 
705	 8,50559591763766E-02 
706	 9,14652245903309E-02 
707	 0,097790924705522 
708	 0,104094133859553 
709	 0,110519701393936 
710	 0,117089176657563 
711	 0,123642915585863 
712	 0,129569257885704 
713	 0,1352402946257 
714	 0,140985073346312 
715	 0,146324971067853 
716	 0,151289419429394 
717	 0,156225720463849 
718	 0,160813766919482 
719	 0,164941751706212 
720	 0,168756218136265 
721	 0,172493925117719 
722	 0,176429532444831 
723	 0,179829144272844 
724	 0,182635870373289 
725	 0,185265147724659 
726	 0,187910527094934 
727	 0,190638925897534 
728	 0,192896335131839 
729	 0,194696206848527 
730	 0,196171531955832 
731	 0,197833044609345 
732	 0,199715555672223 
733	 0,201132005545585 
734	 0,202370907375438 
735	 0,203691164873558 
736	 0,204829220065365 
737	 0,205742467808378 
738	 0,206387159962677 
739	 0,207193338548959 
740	 0,208233925492525 
741	 0,208842776746664 
742	 0,209274598288934 
743	 0,209886684218286 
744	 0,210660250326724 
745	 0,211459667956747 
746	 0,211879982668882 
747	 0,212253552722493 
748	 0,212716647632705 
749	 0,212871326256432 
750	 0,212935844030525 
751	 0,213304908227688 
752	 0,21367254579181 
753	 0,21397668153037 
754	 0,21436014589685 
755	 0,214532488837126 
756	 0,214349664572796 
757	 0,214526949627824 
758	 0,215030753729328 
759	 0,215618324586172 
760	 0,215670694896098 
761	 0,215188782742608 
762	 0,215285987834574 
763	 0,215577443751686 
764	 0,215668231187306 
765	 0,216116295934794 
766	 0,216663675211097 
767	 0,216397608046174 
768	 0,21610525003885 
769	 0,216125380443286 
770	 0,216420835181893 
771	 0,216685141072976 
772	 0,216571992508014 
773	 0,21654442465442 
774	 0,216725664851866 
775	 0,217223601415326 
776	 0,217301616405526 
777	 0,216723004639986 
778	 0,216791846441087 
779	 0,217175151539756 
780	 0,217161796058965 
781	 0,217303174224437 
782	 0,21758758020503 
783	 0,217466349113268 
784	 0,217445203268002 
785	 0,21777535933496 
786	 0,217540428841826 
787	 0,217144657222585 
788	 0,217535398377185 
789	 0,217876643935663 
790	 0,217875024839637 
791	 0,217401392371877 
792	 0,217140582888712 
793	 0,217577169958629 
794	 0,217679057760092 
795	 0,217521409069804 
796	 0,21767132174521 
797	 0,217659755357526 
798	 0,217414194878472 
799	 0,21733695470312 
800	 0,217303264327387 
801	 0,2171932170347 
802	 0,217293048302941 
803	 0,217484647383932 
804	 0,217302859792583 
805	 0,217344514766053 
806	 0,21770117586471 
807	 0,217602197376065 
808	 0,217379185049442 
809	 0,217439253704754 
810	 0,21756856447679 
811	 0,217741299156265 
812	 0,218104628125352 
813	 0,217879013337549 
814	 0,217026518182144 
815	 0,217446846520387 
816	 0,218290934027294 
817	 0,218370975876864 
818	 0,218517381253013 
819	 0,218711809545279 
820	 0,218378732636956 
821	 0,218024773493481 
822	 0,217980280982888 
823	 0,218601522506659 
824	 0,219254951747913 
825	 0,219104171729264 
826	 0,218808287858213 
827	 0,218665133313711 
828	 0,219084638972087 
829	 0,21939487250352 
830	 0,219304294621378 
831	 0,219501526680388 
832	 0,219682275767255 
833	 0,219348254474142 
834	 0,219101751562705 
835	 0,219043229021247 
836	 0,21896712205606 
837	 0,218850630402434 
838	 0,218740633178868 
839	 0,219122349396556 
840	 0,219454780887909 
841	 0,218926724325611 
842	 0,218753749339027 
843	 0,21905819349463 
844	 0,219176746106446 
845	 0,219151022041156 
846	 0,218992827092539 
847	 0,218704469109173 
848	 0,218482061381612 
849	 0,2185802456531 
850	 0,218867747538676 
851	 0,219032807773316 
852	 0,218147092037616 
853	 0,217574492225053 
854	 0,218007394979383 
855	 0,218615532526544 
856	 0,218913326231738 
857	 0,218401372587356 
858	 0,218093363290297 
859	 0,218126029419227 
860	 0,218023992473872 
861	 0,21792868528214 
862	 0,217874883266636 
863	 0,217620092182746 
864	 0,217421345363684 
865	 0,217632050222779 
866	 0,218154453645789 
867	 0,218650301850522 
868	 0,2181907216698 
869	 0,217906397767384 
870	 0,218205000825852 
871	 0,217877234675971 
872	 0,217646840117 
873	 0,21844881448897 
874	 0,218548710726345 
875	 0,217942117534136 
876	 0,217649429109097 
877	 0,218041937898391 
878	 0,219060737387163 
879	 0,219192282101695 
880	 0,219170933931282 
881	 0,219857606504439 
882	 0,219856011971497 
883	 0,21937188734232 
884	 0,219709494245016 
885	 0,219789482095394 
886	 0,219379253946042 
887	 0,21927882208169 
888	 0,219514118897728 
889	 0,219977033416513 
890	 0,21952903029999 
891	 0,218628392866857 
892	 0,218653144222309 
893	 0,21945636933013 
894	 0,220566895090262 
895	 0,220156261667275 
896	 0,219356225160046 
897	 0,21911522839016 
898	 0,218949827990616 
899	 0,219057803968044 
900	 0,2199061162843 
901	 0,220192881158762 
902	 0,219774227378835 
903	 0,21978700219638 
904	 0,219403523069571 
905	 0,218399734898295 
906	 0,219124497658732 
907	 0,220216627051339 
908	 0,219391654720345 
909	 0,21882346500623 
910	 0,218949589483906 
911	 0,21945382898477 
912	 0,219569458592092 
913	 0,219055232384124 
914	 0,21909432950256 
915	 0,218987427417699 
916	 0,21795066956728 
917	 0,218167144307965 
918	 0,21892015150996 
919	 0,217104983062266 
920	 0,216371676938111 
921	 0,217551670555684 
922	 0,218174389125007 
923	 0,217895589025749 
924	 0,216730360897561 
925	 0,216926904419298 
926	 0,217886099448339 
927	 0,217894445517125 
928	 0,21699211383299 
929	 0,21558867567788 
930	 0,215248200791225 
931	 0,214878164391824 
932	 0,21396656699324 
933	 0,213600282561635 
934	 0,213872833687808 
935	 0,214692057221564 
936	 0,214662917086682 
937	 0,213579796816768 
938	 0,21174207693904 
939	 0,210729093241188 
940	 0,210925975287586 
941	 0,21039258726566 
942	 0,210426222322562 
943	 0,211907529818089 
944	 0,210758165879982 
945	 0,208158456781692 
946	 0,207504263346629 
947	 0,20758516074423 
948	 0,207502588422385 
949	 0,205105682433403 
950	 0,202966300510015 
951	 0,202388816930163 
952	 0,201050353766104 
953	 0,200492758317248 
954	 0,202586078264633 
955	 0,202230770080053 
956	 0,199642298373793 
957	 0,198186425700399 
958	 0,197354837334823 
959	 0,19707987506486 
960	 0,197404800034523 
961	 0,196781185284369 
962	 0,194379478263962 
963	 0,193435925251042 
964	 0,193630969032374 
965	 0,193709202737363 
966	 0,194556433686495 
967	 0,195764010175716 
968	 0,195548506399386 
969	 0,195814425250658 
970	 0,196971149496602 
971	 0,196670785898999 
972	 0,195876990456488 
973	 0,195517244227464 
974	 0,193970465329287 
975	 0,192703679432035 
976	 0,194751583915381 
977	 0,195036334161702 
978	 0,1932717446744 
979	 0,193507727967922 
980	 0,194717104585858 
981	 0,196096572042138 
982	 0,19614956312065 
983	 0,19532217373399 
984	 0,194310781758946 
985	 0,193963432292521 
986	 0,193853484090091 
987	 0,192716810735691 
988	 0,192996647555718 
989	 0,194411758174196 
990	 0,193049500602886 
991	 0,193005168449135 
992	 0,195894575435399 
993	 0,197863056490149 
994	 0,198010256657477 
995	 0,196011467726396 
996	 0,194589498806884 
997	 0,194305840459482 
998	 0,195086453393471 
999	 0,196292461623777 
1000	 0,197122171753584 
1001	 0,195724877573629 
1002	 0,194982552960576 
1003	 0,195909686687239 
1004	 0,194904607843565 
1005	 0,19434905564845 
1006	 0,196721174760825 
1007	 0,200796493490215 
1008	 0,203809831251529 
1009	 0,201449304765393 
1010	 0,201791292819854 
1011	 0,204309540585968 
1012	 0,199396751963534 
1013	 0,196820839587239 
1014	 0,199990298661958 
1015	 0,202185980746338 
1016	 0,203057138857392 
1017	 0,202620735216033 
1018	 0,201554020291172 
1019	 0,200349402790435 
1020	 0,199505836728724 
1021	 0,197987941403423 
1022	 0,197231435358801 
1023	 0,201874552495459 
1024	 0,20530850086146 
1025	 0,205563700659976 
1026	 0,20543668141652 
1027	 0,205015848855965 
1028	 0,204568277963019 
1029	 0,205277872721778 
1030	 0,205838781057736 
1031	 0,204734477577398 
1032	 0,204489623475764 
1033	 0,205173420163382 
1034	 0,205836201723572 
1035	 0,207936686568596 
1036	 0,209887907935916 
1037	 0,204819150026365 
1038	 0,201034457296906 
1039	 0,202402681445591 
1040	 0,207194834823128 
1041	 0,209307782315872 
1042	 0,204570839692413 
1043	 0,20126833619902 
1044	 0,204747671179428 
1045	 0,219119073386088 
1046	 0,218284836100992 
1047	 0,206286350974105 
1048	 0,206143724038426 
1049	 0,210700839213378 
1050	 0,21560236967035 
1051	 0,211820523721883 
1052	 0,208071029941632 
1053	 0,209651551688312 
1054	 0,21881144682268 
1055	 0,220188235417041 
1056	 0,203974350893041 
1057	 0,206633721867987 
1058	 0,216160743620128 
1059	 0,20900481241465 
1060	 0,201559252768181 
1061	 0,199792231220754 
1062	 0,209896005245291 
1063	 0,218595430303023 
1064	 0,220037992706293 
1065	 0,209337377908515 
1066	 0,198932255384019 
1067	 0,195480309634767 
1068	 0,197226699335434 
1069	 0,202851625517036 
1070	 0,209381217747437 
1071	 0,203091641343476 
1072	 0,198327608974064 
1073	 0,212117498472435 
1074	 0,217844279190084 
1075	 0,213702000414415 
