Wavelength	SCO-GRA00660.asd
325	 0,274429941814751 
326	 0,196728968111148 
327	 9,61322259159198E-03 
328	-0,159656959216918 
329	 5,96193847932722E-02 
330	 0,240558520669885 
331	 0,241236664037527 
332	 0,213485118178887 
333	 0,178831631398198 
334	 0,139086592768783 
335	 9,11841348144945E-02 
336	 5,78639979180645E-02 
337	 0,129575275500922 
338	 0,153093245300692 
339	 0,016065324499063 
340	 0,013132143250502 
341	 0,106116326533428 
342	 0,109393918271775 
343	 0,102635182975679 
344	 0,108724808338818 
345	 0,121508437692644 
346	 0,120159617437759 
347	 8,84891917748067E-02 
348	 9,54736126639908E-02 
349	 0,135147178919305 
350	 0,156252936202199 
351	 0,147317199383944 
352	 0,111334990389807 
353	 9,17349869785979E-02 
354	 0,070808124648632 
355	 2,25081809334356E-02 
356	 2,62560375068395E-02 
357	 7,28126418977016E-02 
358	 9,65973913086425E-02 
359	 0,107155439267751 
360	 0,10390339809171 
361	 6,19599712960221E-02 
362	 3,04308474254814E-02 
363	 7,29310005897385E-02 
364	 8,72132000574329E-02 
365	 6,79544790440915E-02 
366	 9,45359279898538E-02 
367	 0,108658309604693 
368	 0,080948806124382 
369	 8,76915483216684E-02 
370	 0,106876391277801 
371	 0,084748184825978 
372	 6,04046074720427E-02 
373	 5,05636999613497E-02 
374	 7,12290496613566E-02 
375	 9,06063781177959E-02 
376	 8,75240278658039E-02 
377	 8,93687455994326E-02 
378	 9,45223869142205E-02 
379	 9,17733912366706E-02 
380	 7,54127621597501E-02 
381	 5,25848432897317E-02 
382	 6,08128906301488E-02 
383	 7,83321930766673E-02 
384	 8,24763857077245E-02 
385	 8,69095800984525E-02 
386	 8,91897054282147E-02 
387	 7,66608800531824E-02 
388	 7,26278517382258E-02 
389	 8,33779337355365E-02 
390	 8,67966179717397E-02 
391	 0,079083803158105 
392	 5,80330184849708E-02 
393	 5,82744884843583E-02 
394	 7,68687436370963E-02 
395	 8,00297091097783E-02 
396	 8,48450817856884E-02 
397	 9,61795062988109E-02 
398	 8,59187321758467E-02 
399	 6,80818635960573E-02 
400	 6,67620372245138E-02 
401	 7,33775838743752E-02 
402	 8,23780807090782E-02 
403	 0,082433760135735 
404	 7,90972394313175E-02 
405	 7,64595832047043E-02 
406	 7,48987686072511E-02 
407	 0,073294057501765 
408	 6,77778020123249E-02 
409	 7,03028234857459E-02 
410	 7,97478039530532E-02 
411	 7,48801800416871E-02 
412	 6,83666310804122E-02 
413	 7,23754152755107E-02 
414	 0,072378784068196 
415	 6,81359181747918E-02 
416	 6,47432556146208E-02 
417	 6,52087614823651E-02 
418	 6,94701822981784E-02 
419	 6,76249835481133E-02 
420	 6,58193781747547E-02 
421	 7,27172009504469E-02 
422	 7,17048403421287E-02 
423	 6,36373981817419E-02 
424	 6,36114300605667E-02 
425	 6,48927025380024E-02 
426	 0,064077051199781 
427	 6,99671338083524E-02 
428	 0,075906116075177 
429	 6,80904485296544E-02 
430	 0,061831922331777 
431	 6,15635389745639E-02 
432	 6,44235169529836E-02 
433	 6,68575165507367E-02 
434	 6,62136039223818E-02 
435	 7,02756886672899E-02 
436	 7,61246655955412E-02 
437	 0,073244794729039 
438	 6,89542904539097E-02 
439	 6,66461309064197E-02 
440	 6,75916800386505E-02 
441	 6,93608286888717E-02 
442	 6,87649162506492E-02 
443	 6,74981578435046E-02 
444	 6,68402716642748E-02 
445	 7,02717167155332E-02 
446	 7,05216104242415E-02 
447	 6,43335917441952E-02 
448	 0,065511561583803 
449	 7,02432854171193E-02 
450	 6,78933161497989E-02 
451	 6,66038525538558E-02 
452	 6,80581229041928E-02 
453	 6,81326338783245E-02 
454	 6,79979647952757E-02 
455	 6,88986169346375E-02 
456	 7,11081250691463E-02 
457	 7,34192844243585E-02 
458	 7,26808320546662E-02 
459	 7,11250295279382E-02 
460	 6,98829279742121E-02 
461	 6,95415780853917E-02 
462	 6,94512726413745E-02 
463	 6,86214851474846E-02 
464	 6,91196681044476E-02 
465	 7,06821542090319E-02 
466	 7,07887629887815E-02 
467	 7,00911035785609E-02 
468	 6,92366230646995E-02 
469	 6,98932432926137E-02 
470	 7,12799883266384E-02 
471	 7,12606592560005E-02 
472	 7,22767936590649E-02 
473	 7,39751595788886E-02 
474	 7,10965269328981E-02 
475	 6,76543284900509E-02 
476	 6,77279921894938E-02 
477	 6,80776997513085E-02 
478	 6,87742631731212E-02 
479	 0,072334714392114 
480	 7,37291009909773E-02 
481	 7,11978579777149E-02 
482	 7,03125412194798E-02 
483	 7,12201273635332E-02 
484	 7,32649483408761E-02 
485	 0,072518049493842 
486	 6,93256116152313E-02 
487	 6,93771029129591E-02 
488	 7,02357732926624E-02 
489	 6,99792201341444E-02 
490	 6,92999584362384E-02 
491	 0,068930178322354 
492	 7,06331709797722E-02 
493	 7,08527888529375E-02 
494	 6,88565170358209E-02 
495	 6,79597422831723E-02 
496	 6,82453212559646E-02 
497	 6,94581990201441E-02 
498	 7,04624931014841E-02 
499	 7,07019473585409E-02 
500	 6,94018123699641E-02 
501	 6,87686864120577E-02 
502	 6,97434817290032E-02 
503	 6,86762984596983E-02 
504	 6,71465085483359E-02 
505	 6,87365299067092E-02 
506	 7,00260283904988E-02 
507	 7,01719639032465E-02 
508	 7,03974205123046E-02 
509	 7,05107188887264E-02 
510	 0,070337969695811 
511	 7,05642812231115E-02 
512	 7,10550410586241E-02 
513	 7,12008349450292E-02 
514	 7,08397458375369E-02 
515	 0,070247771881226 
516	 7,17202120116819E-02 
517	 7,35264404323159E-02 
518	 7,30111314673398E-02 
519	 0,073145741659657 
520	 7,40589638841518E-02 
521	 7,33382542407771E-02 
522	 7,24052336797812E-02 
523	 7,22954144475407E-02 
524	 7,21394465195871E-02 
525	 7,20527934815579E-02 
526	 7,26550744329618E-02 
527	 7,29383955690189E-02 
528	 7,27066147964977E-02 
529	 7,30680102730206E-02 
530	 7,34026920795529E-02 
531	 7,29348183900653E-02 
532	 7,26653065508953E-02 
533	 7,27321784778173E-02 
534	 7,28073017387415E-02 
535	 7,27609810600419E-02 
536	 7,25870812497938E-02 
537	 7,30090280431291E-02 
538	 7,35553248091283E-02 
539	 7,31545422542015E-02 
540	 7,31012325472714E-02 
541	 7,36077341865385E-02 
542	 7,36497689940375E-02 
543	 7,36127206376793E-02 
544	 7,39108701963311E-02 
545	 7,42704819032951E-02 
546	 7,45376371670196E-02 
547	 0,074445861401444 
548	 7,43391859239005E-02 
549	 7,43943199117329E-02 
550	 7,45320370944312E-02 
551	 7,46378277157941E-02 
552	 7,45456127429084E-02 
553	 7,45303073773458E-02 
554	 7,45996364741175E-02 
555	 7,44257579395663E-02 
556	 7,43243654255631E-02 
557	 7,45159179510405E-02 
558	 7,41850936347017E-02 
559	 7,36858083908657E-02 
560	 7,43308494974323E-02 
561	 7,47244826344551E-02 
562	 7,43392697160089E-02 
563	 7,37408293655846E-02 
564	 0,073205632697868 
565	 7,30151354917222E-02 
566	 7,30194412302474E-02 
567	 7,31881496538917E-02 
568	 0,073657957004377 
569	 7,37186922805418E-02 
570	 0,073034881023044 
571	 7,34751658630523E-02 
572	 7,46901279756448E-02 
573	 7,52975455697725E-02 
574	 7,58822207616031E-02 
575	 7,65156557782665E-02 
576	 7,65977304532752E-02 
577	 7,70620140868403E-02 
578	 7,89353135410741E-02 
579	 8,00791473270086E-02 
580	 8,03361412928255E-02 
581	 0,080928215570979 
582	 8,14347846186635E-02 
583	 8,16430006281992E-02 
584	 0,081583206725924 
585	 8,18134947084837E-02 
586	 8,33502915127652E-02 
587	 8,42372156694432E-02 
588	 8,40977285864611E-02 
589	 8,42208856749446E-02 
590	 8,45934411495593E-02 
591	 8,51375513740298E-02 
592	 8,55784032487438E-02 
593	 8,60045153999003E-02 
594	 8,70820377962181E-02 
595	 8,69484537586092E-02 
596	 0,085191449198974 
597	 0,085421085383891 
598	 8,63946040283291E-02 
599	 8,56426257141259E-02 
600	 8,59479768997329E-02 
601	 8,72874838453685E-02 
602	 8,66372223640806E-02 
603	 8,55233435255774E-02 
604	 8,52097439728889E-02 
605	 8,51757642570513E-02 
606	 8,51784530381053E-02 
607	 8,48269858942069E-02 
608	 8,43921516555086E-02 
609	 8,39464065397563E-02 
610	 8,32208703258024E-02 
611	 8,27632257430537E-02 
612	 8,32456479825133E-02 
613	 0,083381764436737 
614	 0,083040047882305 
615	 8,29779469717838E-02 
616	 8,29099178126574E-02 
617	 8,26330665375054E-02 
618	 8,19695159206528E-02 
619	 8,13320113114478E-02 
620	 8,15620624617825E-02 
621	 8,18908497990621E-02 
622	 8,19491648320978E-02 
623	 8,12959799462315E-02 
624	 8,08281645183334E-02 
625	 8,14393824620994E-02 
626	 8,16203864843357E-02 
627	 8,12871313309881E-02 
628	 0,081137471173265 
629	 8,13097177178075E-02 
630	 8,18277008820745E-02 
631	 8,20447681829222E-02 
632	 0,082392260396972 
633	 8,37558572435772E-02 
634	 8,41535378603612E-02 
635	 0,083454714678616 
636	 8,36950449248533E-02 
637	 8,42289293270768E-02 
638	 8,44950873382425E-02 
639	 8,51829728427596E-02 
640	 8,62490156804213E-02 
641	 8,74466407251054E-02 
642	 8,79873544070582E-02 
643	 8,77285702826293E-02 
644	 8,81521387302603E-02 
645	 8,87584489345846E-02 
646	 8,87256325341484E-02 
647	 8,84490591220758E-02 
648	 8,80643396715809E-02 
649	 8,76856974286936E-02 
650	 8,73264233666184E-02 
651	 8,69635648862542E-02 
652	 8,62568722556547E-02 
653	 8,54806232754264E-02 
654	 8,53281064453749E-02 
655	 0,084894628361546 
656	 8,39471993526686E-02 
657	 8,30188371210827E-02 
658	 8,19857574089111E-02 
659	 8,07017108318903E-02 
660	 7,94008246210718E-02 
661	 7,82725980121095E-02 
662	 0,077631369838479 
663	 7,72560164087599E-02 
664	 7,69390696255713E-02 
665	 7,61456836030393E-02 
666	 7,52908415526465E-02 
667	 7,51376417382185E-02 
668	 7,45873584374804E-02 
669	 7,36214264364579E-02 
670	 7,34571368454875E-02 
671	 7,33480681826158E-02 
672	 7,27605172595845E-02 
673	 0,07303953259143 
674	 7,38797682125972E-02 
675	 7,40888780476126E-02 
676	 7,39413079665815E-02 
677	 7,36191747872119E-02 
678	 7,36997198744836E-02 
679	 7,40329032636318E-02 
680	 7,43699113047062E-02 
681	 7,43961559204511E-02 
682	 7,42805050714416E-02 
683	 7,47125727303227E-02 
684	 7,56794445828732E-02 
685	 7,71250537729568E-02 
686	 7,87448595096433E-02 
687	 8,00595804442721E-02 
688	 8,02263297300693E-02 
689	 8,16288428028874E-02 
690	 8,46519536333083E-02 
691	 8,73107474240342E-02 
692	 9,01402126189778E-02 
693	 9,36692187918661E-02 
694	 9,74362289828754E-02 
695	 0,101633197759144 
696	 0,106896837569364 
697	 0,112848449622691 
698	 0,11925984012636 
699	 0,12594457669947 
700	 0,132755459894181 
701	 0,139528883746132 
702	 0,146800267519867 
703	 0,154457106799284 
704	 0,161748006409669 
705	 0,168875584093516 
706	 0,1759142492765 
707	 0,182317888644007 
708	 0,188372337885696 
709	 0,194760551260983 
710	 0,200917895272776 
711	 0,206633481930836 
712	 0,211899332494884 
713	 0,216792614240408 
714	 0,221375104762538 
715	 0,225688533390978 
716	 0,229734999644727 
717	 0,233439423721443 
718	 0,237121115838858 
719	 0,240791659257782 
720	 0,243650954025853 
721	 0,246083961291268 
722	 0,248672637598006 
723	 0,251135264394477 
724	 0,253397280905868 
725	 0,255409782534274 
726	 0,257215572840839 
727	 0,258844124233549 
728	 0,260304444432875 
729	 0,261551360491199 
730	 0,262427322200365 
731	 0,263925952485785 
732	 0,265995278378237 
733	 0,267007875968964 
734	 0,267666717268534 
735	 0,268631307228514 
736	 0,269547979401393 
737	 0,27039865905366 
738	 0,271295825458541 
739	 0,272003505437794 
740	 0,27246619993834 
741	 0,272895025661988 
742	 0,273452262198688 
743	 0,274288249131082 
744	 0,2748506668518 
745	 0,275217806120058 
746	 0,276066894540411 
747	 0,276874389800623 
748	 0,277324833024409 
749	 0,277278426590664 
750	 0,277339710912221 
751	 0,278459257147899 
752	 0,27913487173265 
753	 0,279154444099702 
754	 0,279446225234334 
755	 0,279788589197877 
756	 0,280044651891972 
757	 0,280543917698873 
758	 0,281150417844515 
759	 0,281519978964778 
760	 0,28170054874604 
761	 0,281765594197926 
762	 0,281970136854281 
763	 0,282329077771101 
764	 0,282835912466705 
765	 0,283477526303857 
766	 0,284041184263033 
767	 0,283975585904671 
768	 0,284111372311006 
769	 0,284674703479453 
770	 0,284825838218953 
771	 0,284862634651951 
772	 0,285213055774487 
773	 0,285860871457864 
774	 0,286548704786576 
775	 0,28652409580015 
776	 0,286434534933682 
777	 0,286648511516778 
778	 0,287140260184093 
779	 0,287693485782368 
780	 0,288002720589219 
781	 0,288194733733567 
782	 0,288345638949666 
783	 0,288613274919812 
784	 0,288852291636524 
785	 0,288988048163097 
786	 0,289264030491257 
787	 0,289573035404276 
788	 0,289654960398046 
789	 0,289823026856315 
790	 0,290188016341546 
791	 0,290822146134487 
792	 0,291254702033732 
793	 0,291154653024482 
794	 0,29124762570094 
795	 0,291493407494183 
796	 0,291512615209106 
797	 0,291623581520618 
798	 0,291927893855466 
799	 0,292398342339864 
800	 0,292751712667466 
801	 0,292763236776792 
802	 0,293097848369935 
803	 0,293590560576165 
804	 0,293431959170449 
805	 0,29361638021575 
806	 0,294331592970435 
807	 0,29448957704628 
808	 0,294380577233438 
809	 0,2944070666094 
810	 0,294653433686556 
811	 0,295060991417095 
812	 0,295411668378278 
813	 0,295575974478706 
814	 0,295647147175949 
815	 0,296616845602399 
816	 0,297520356304147 
817	 0,297172123634991 
818	 0,297342818142052 
819	 0,29808947928962 
820	 0,298327241624894 
821	 0,298486293502515 
822	 0,298768249990121 
823	 0,299203004436711 
824	 0,299563153240927 
825	 0,299562170659609 
826	 0,29968716091224 
827	 0,300093016301852 
828	 0,300924424943412 
829	 0,301375038008237 
830	 0,301151310503933 
831	 0,301490949721686 
832	 0,301872351869373 
833	 0,301419058498246 
834	 0,30148225658288 
835	 0,302104152186165 
836	 0,302305686416897 
837	 0,302288802188419 
838	 0,302221242286355 
839	 0,302565051857273 
840	 0,302960346335093 
841	 0,302833679729254 
842	 0,302893409613066 
843	 0,30326805368606 
844	 0,303814791590128 
845	 0,304043019055321 
846	 0,303772482118651 
847	 0,303818029990501 
848	 0,304221785402136 
849	 0,304898130043027 
850	 0,304791827893154 
851	 0,304082816265911 
852	 0,304297225142242 
853	 0,304670202897327 
854	 0,304854007021718 
855	 0,305497655028661 
856	 0,306028332505627 
857	 0,305610334578621 
858	 0,305690678609056 
859	 0,306270279712312 
860	 0,306162354034021 
861	 0,305852339386248 
862	 0,305622486332928 
863	 0,305520388577696 
864	 0,305736477952578 
865	 0,306476775918427 
866	 0,30720833838314 
867	 0,30763354411888 
868	 0,307250457804095 
869	 0,307409386449489 
870	 0,308488413073967 
871	 0,30844121947791 
872	 0,30794054831631 
873	 0,308023758771179 
874	 0,308603721817411 
875	 0,309397856740158 
876	 0,309677127462287 
877	 0,309657071762864 
878	 0,309467905068461 
879	 0,309212212047245 
880	 0,309550835003805 
881	 0,311055727005183 
882	 0,311588402259691 
883	 0,311281771140378 
884	 0,311734721615258 
885	 0,311994828323739 
886	 0,311950596583751 
887	 0,312717252797629 
888	 0,313334318756245 
889	 0,312945523726731 
890	 0,313175814005578 
891	 0,313761641659676 
892	 0,313428504561314 
893	 0,313506729625378 
894	 0,314200695207853 
895	 0,31444439694868 
896	 0,314407358448517 
897	 0,314279536722514 
898	 0,314218527649347 
899	 0,314395142928516 
900	 0,315042678101698 
901	 0,315567932585226 
902	 0,315833974912006 
903	 0,316090256824171 
904	 0,316387693093897 
905	 0,316721028984243 
906	 0,316761971007943 
907	 0,316749900368636 
908	 0,317072452605944 
909	 0,316977184751775 
910	 0,316556063902192 
911	 0,316621732884451 
912	 0,317069746546948 
913	 0,317705539736338 
914	 0,317676814198254 
915	 0,317442341776033 
916	 0,317585609425376 
917	 0,317734252505145 
918	 0,317681868317689 
919	 0,31695900191031 
920	 0,317041698785043 
921	 0,318143479220182 
922	 0,318670861377464 
923	 0,318362195947943 
924	 0,317309318342938 
925	 0,31799026907232 
926	 0,319652206826084 
927	 0,32028317922171 
928	 0,319434440696878 
929	 0,317676997857604 
930	 0,317671522378772 
931	 0,317997454743157 
932	 0,317869509044988 
933	 0,318035520140012 
934	 0,318414928476986 
935	 0,318797835489923 
936	 0,318380712679007 
937	 0,317382654901305 
938	 0,316888794107341 
939	 0,316776177423955 
940	 0,316897528548694 
941	 0,316606285440267 
942	 0,316188899349407 
943	 0,315962761599042 
944	 0,316170237664381 
945	 0,316268396908338 
946	 0,31516669668136 
947	 0,314797942106621 
948	 0,315246589682482 
949	 0,314756620143799 
950	 0,313560669868161 
951	 0,311985709772147 
952	 0,310989431274517 
953	 0,311170778778603 
954	 0,312874744749231 
955	 0,311548145564938 
956	 0,308101884532763 
957	 0,307181343195984 
958	 0,308195739255053 
959	 0,310377294583766 
960	 0,310962657670933 
961	 0,310222943052693 
962	 0,308625260711907 
963	 0,307326870628853 
964	 0,306799832281506 
965	 0,30737343861629 
966	 0,309270892757727 
967	 0,311183267385547 
968	 0,309208554311503 
969	 0,307154837022561 
970	 0,306934359616827 
971	 0,308803322257512 
972	 0,310680172209911 
973	 0,310599503128371 
974	 0,30917864023654 
975	 0,307548467360553 
976	 0,30746995334048 
977	 0,308268180205298 
978	 0,309509798127609 
979	 0,310453009466144 
980	 0,311068195607474 
981	 0,311081298377625 
982	 0,308960100202524 
983	 0,307768922234642 
984	 0,310364439522588 
985	 0,311594611649686 
986	 0,311720443552396 
987	 0,313226568918867 
988	 0,31346683365409 
989	 0,31217663788889 
990	 0,31096547636632 
991	 0,311178412831923 
992	 0,312974908637211 
993	 0,312481780571282 
994	 0,312012124798652 
995	 0,31396552727216 
996	 0,313312267927222 
997	 0,311899082058549 
998	 0,315131285607362 
999	 0,316033999332821 
1000	 0,314203605708844 
1001	 0,315568511263964 
1002	 0,317561439782626 
1003	 0,318714539676295 
1004	 0,318403576714679 
1005	 0,318265762038722 
1006	 0,3198099518032 
1007	 0,320791367288947 
1008	 0,321611883724442 
1009	 0,32369697152525 
1010	 0,323716618110275 
1011	 0,321616447301376 
1012	 0,319661506221296 
1013	 0,320958223720847 
1014	 0,32570229100115 
1015	 0,327371211050483 
1016	 0,325959029380103 
1017	 0,322375066371955 
1018	 0,321122720697126 
1019	 0,322993681358347 
1020	 0,327730157981304 
1021	 0,32722827507237 
1022	 0,323559064071175 
1023	 0,328505829753819 
1024	 0,33163611643078 
1025	 0,33049232805162 
1026	 0,331164703827963 
1027	 0,330566209162315 
1028	 0,32766109017908 
1029	 0,329823773958172 
1030	 0,333521972171355 
1031	 0,333729429402444 
1032	 0,33203603261511 
1033	 0,329410189094418 
1034	 0,326994700194101 
1035	 0,329172629495303 
1036	 0,334911967791747 
1037	 0,336191080673632 
1038	 0,334697426776106 
1039	 0,33267896165384 
1040	 0,338059114779997 
1041	 0,341032908814432 
1042	 0,33442414534296 
1043	 0,331876883979252 
1044	 0,335053738831554 
1045	 0,342914652679812 
1046	 0,347308374798595 
1047	 0,346602700184392 
1048	 0,34173123469709 
1049	 0,340132178893203 
1050	 0,342582850299665 
1051	 0,34002064231731 
1052	 0,344157773494699 
1053	 0,356565882880977 
1054	 0,354992944318792 
1055	 0,345779361711903 
1056	 0,337570374456803 
1057	 0,344787579111795 
1058	 0,353366046927295 
1059	 0,341630836937604 
1060	 0,330994430686309 
1061	 0,328549096685871 
1062	 0,340417412811234 
1063	 0,345919364753066 
1064	 0,342090099728408 
1065	 0,342805539365529 
1066	 0,343758994191653 
1067	 0,343034221302055 
1068	 0,339726255529992 
1069	 0,340173724890419 
1070	 0,347397301462021 
1071	 0,347699394212299 
1072	 0,34720485593709 
1073	 0,353627220887127 
1074	 0,341687186955303 
1075	 0,32645046028609 
