Wavelength	SCO-GRA00615.asd
325	 0,38391031833397 
326	 0,216894745084248 
327	-3,04412950003632E-02 
328	-9,65069396840841E-02 
329	 2,30300212777371E-02 
330	 0,135808784701267 
331	 0,186277969197559 
332	 0,198113945471161 
333	 0,186585532488591 
334	 0,180249611990192 
335	 0,102875583198033 
336	-6,92385179310235E-03 
337	 0,137146070081864 
338	 0,250049363335362 
339	 9,64335246897264E-02 
340	 9,22215350204607E-02 
341	 0,196480590395313 
342	 0,176812346233578 
343	 0,132271191589758 
344	 9,40239658004115E-02 
345	 7,43414417377704E-02 
346	 5,59371435298511E-02 
347	 1,84142774326785E-02 
348	 0,025949960183718 
349	 6,14601801222873E-02 
350	 4,24086385593269E-02 
351	 0,034827976684186 
352	 5,89377942678859E-02 
353	 0,101007370008149 
354	 0,117986111313396 
355	 6,51433813363679E-02 
356	 1,09806938654209E-02 
357	-1,27204748118497E-02 
358	 1,31459375632788E-02 
359	 3,70636049152147E-02 
360	 3,32245898844409E-02 
361	 1,44550048756961E-02 
362	 2,74950494882835E-04 
363	 1,19115072803251E-02 
364	 3,79753189844748E-02 
365	 6,12569069863558E-02 
366	 3,80256820840022E-02 
367	 1,53410962530642E-02 
368	 2,28155879873752E-02 
369	 4,95620177133947E-02 
370	 6,93324778600948E-02 
371	 4,17755013968701E-02 
372	 0,03077603379263 
373	 4,65973234098677E-02 
374	 4,50477357329294E-02 
375	 4,58658425612384E-02 
376	 0,062158165301284 
377	 0,055639095802827 
378	 3,78749657678015E-02 
379	 4,74428581670767E-02 
380	 5,29931911414124E-02 
381	 0,045540221828618 
382	 3,32252239399632E-02 
383	 2,15680503904264E-02 
384	 1,64803671894141E-02 
385	 3,18520539126302E-02 
386	 5,38357797281143E-02 
387	 4,74118929916095E-02 
388	 4,37998312127489E-02 
389	 0,051072808417233 
390	 0,040300888767975 
391	 2,55901233881305E-02 
392	 2,67333697189713E-02 
393	 0,029404024212264 
394	 0,031511894058991 
395	 3,69183897429404E-02 
396	 4,29080301854741E-02 
397	 4,68530473686276E-02 
398	 3,84998154006375E-02 
399	 3,10548249447047E-02 
400	 4,60116623811673E-02 
401	 4,34829731567436E-02 
402	 2,46144821083137E-02 
403	 3,29757136938465E-02 
404	 4,06920415487541E-02 
405	 0,029906717597569 
406	 2,38824812798682E-02 
407	 2,35042898528547E-02 
408	 2,29534903620138E-02 
409	 2,31609969345527E-02 
410	 2,32641542369985E-02 
411	 1,86660256917213E-02 
412	 1,72427666742257E-02 
413	 2,56426543442662E-02 
414	 0,026067481170662 
415	 1,94787855708621E-02 
416	 1,51372021557712E-02 
417	 1,73169903579167E-02 
418	 2,57190553510546E-02 
419	 0,025573961057832 
420	 2,23995624978347E-02 
421	 2,46225139154957E-02 
422	 2,77313069466487E-02 
423	 2,88508973639609E-02 
424	 2,15181671894341E-02 
425	 1,63984421489144E-02 
426	 1,99741005864253E-02 
427	 2,67531508539792E-02 
428	 3,25803902308533E-02 
429	 3,17998943859533E-02 
430	 2,94283849793099E-02 
431	 2,75884466166645E-02 
432	 0,028306979747544 
433	 2,77774432855868E-02 
434	 2,30903695181526E-02 
435	 2,39016544617129E-02 
436	 0,027510050125491 
437	 2,23937072557299E-02 
438	 0,018452866081243 
439	 1,95132695664148E-02 
440	 2,29537513399347E-02 
441	 2,62524140150818E-02 
442	 2,66920081648587E-02 
443	 2,44465811250133E-02 
444	 2,13484653932891E-02 
445	 2,30210122445122E-02 
446	 2,45936972897015E-02 
447	 2,33068238490329E-02 
448	 2,33338062763704E-02 
449	 2,44087433816591E-02 
450	 2,51478765437047E-02 
451	 2,45688473585719E-02 
452	 2,29788211653904E-02 
453	 2,31569698833417E-02 
454	 2,49380938574775E-02 
455	 0,02781439545569 
456	 2,82806391951332E-02 
457	 2,68655381239005E-02 
458	 2,74028072704968E-02 
459	 2,54460633051149E-02 
460	 2,04075727733295E-02 
461	 2,04954349171727E-02 
462	 2,34763690826757E-02 
463	 2,53149008346835E-02 
464	 2,43712835079317E-02 
465	 2,15873980049971E-02 
466	 2,19949885072726E-02 
467	 2,30516924520395E-02 
468	 2,31871622651746E-02 
469	 0,024381648392101 
470	 2,60094972947196E-02 
471	 2,62244540284269E-02 
472	 2,78339274381455E-02 
473	 3,04353556698515E-02 
474	 2,81266797302992E-02 
475	 2,40935328635421E-02 
476	 2,17979464732997E-02 
477	 2,13156241191851E-02 
478	 2,28205394153085E-02 
479	 2,70051166209248E-02 
480	 2,89797700271782E-02 
481	 2,69344262023471E-02 
482	 2,63140156146894E-02 
483	 2,69550026075851E-02 
484	 2,77391769814422E-02 
485	 2,65848038613409E-02 
486	 2,42811664023197E-02 
487	 2,62724831631072E-02 
488	 2,80208549965647E-02 
489	 0,026277266555942 
490	 2,55179834930628E-02 
491	 2,56604339757183E-02 
492	 2,48755656242796E-02 
493	 2,36467899483035E-02 
494	 0,022499290333965 
495	 0,023197779425407 
496	 2,48645612114918E-02 
497	 2,63504294142975E-02 
498	 2,73467685477455E-02 
499	 2,72869372062163E-02 
500	 2,45717953759226E-02 
501	 2,30802003677795E-02 
502	 2,46886721519748E-02 
503	 2,48700076386755E-02 
504	 2,44820087759607E-02 
505	 2,62522613212416E-02 
506	 2,62312573675416E-02 
507	 2,43847508116906E-02 
508	 2,59573374915566E-02 
509	 2,74415259604846E-02 
510	 0,025726232081666 
511	 2,58363228798564E-02 
512	 2,74859892576276E-02 
513	 2,75844219660654E-02 
514	 2,69764830145382E-02 
515	 2,61896595497828E-02 
516	 2,62829332977968E-02 
517	 2,71681914450569E-02 
518	 2,86106827784724E-02 
519	 2,86956847117282E-02 
520	 2,74910510755712E-02 
521	 2,72950975833521E-02 
522	 2,72534495516831E-02 
523	 2,68154619751079E-02 
524	 0,027263950950516 
525	 2,81093006836776E-02 
526	 2,79308218828417E-02 
527	 2,71719286216617E-02 
528	 2,63856051144265E-02 
529	 2,78842765892796E-02 
530	 2,88784939627903E-02 
531	 0,026117589826626 
532	 2,57276818036581E-02 
533	 2,77384140806217E-02 
534	 2,75943430479572E-02 
535	 2,72871629825317E-02 
536	 2,78578812863837E-02 
537	 2,78715513805078E-02 
538	 2,76293483253787E-02 
539	 2,80575469313943E-02 
540	 2,80750451165951E-02 
541	 2,74962599660665E-02 
542	 2,69341957591646E-02 
543	 2,70443207453279E-02 
544	 0,028350764084897 
545	 2,93451140923276E-02 
546	 2,94716001982895E-02 
547	 0,028006247061344 
548	 2,73658749079433E-02 
549	 2,85451553280186E-02 
550	 2,91739930290621E-02 
551	 2,92014808677219E-02 
552	 2,89872578630578E-02 
553	 2,89006741351109E-02 
554	 0,02899297792227 
555	 2,88613272684379E-02 
556	 2,87433635844468E-02 
557	 2,88308507486919E-02 
558	 2,88729141846956E-02 
559	 2,88355907718631E-02 
560	 2,86853243113762E-02 
561	 2,88930292199833E-02 
562	 2,94921330326607E-02 
563	 2,94545179047692E-02 
564	 2,90776147686331E-02 
565	 2,88774080643058E-02 
566	 2,88143650842723E-02 
567	 2,89138750439988E-02 
568	 2,93159703596548E-02 
569	 2,92837475712851E-02 
570	 2,84837455432359E-02 
571	 2,90882007208017E-02 
572	 3,03329414366686E-02 
573	 2,97821534236984E-02 
574	 2,95062225724867E-02 
575	 3,00906210404485E-02 
576	 3,05530540370281E-02 
577	 3,10911445986164E-02 
578	 3,19713811050516E-02 
579	 3,20600038607061E-02 
580	 3,15923368967792E-02 
581	 3,21784855533419E-02 
582	 3,26277884997687E-02 
583	 3,23233778677788E-02 
584	 3,20228975739048E-02 
585	 3,20423192974269E-02 
586	 3,27711466190908E-02 
587	 3,33409812443912E-02 
588	 0,033403640031164 
589	 3,27411925356216E-02 
590	 3,24261477734229E-02 
591	 3,33971517757207E-02 
592	 3,41205272104549E-02 
593	 3,42922359062419E-02 
594	 3,39845996157859E-02 
595	 3,37334879352777E-02 
596	 3,38280575877539E-02 
597	 3,42054763335185E-02 
598	 3,44047327257154E-02 
599	 0,033732020392617 
600	 3,39005920174212E-02 
601	 3,48901917030146E-02 
602	 0,034664283964564 
603	 3,41494982834897E-02 
604	 3,40709876788559E-02 
605	 3,35952466997927E-02 
606	 3,28930409054503E-02 
607	 3,26169885876969E-02 
608	 0,032723113616941 
609	 3,31038079864933E-02 
610	 3,31197451971351E-02 
611	 3,31227731689206E-02 
612	 3,36135961387482E-02 
613	 3,34598417023485E-02 
614	 3,27609527622722E-02 
615	 3,28818175069223E-02 
616	 3,26648445280689E-02 
617	 0,031575752267285 
618	 3,18604908948814E-02 
619	 3,27416255155749E-02 
620	 3,20652201875055E-02 
621	 3,12530480614957E-02 
622	 3,09132884782935E-02 
623	 3,16522350140036E-02 
624	 3,22604358346329E-02 
625	 3,15324296783005E-02 
626	 3,16541686611631E-02 
627	 3,24774136017983E-02 
628	 3,21584313229765E-02 
629	 0,031760168273464 
630	 3,18515165222603E-02 
631	 3,23418420763335E-02 
632	 3,30454032727551E-02 
633	 3,37197389224058E-02 
634	 3,37593808370831E-02 
635	 3,32371429082238E-02 
636	 3,33039788298061E-02 
637	 3,33592152639613E-02 
638	 3,29748671496789E-02 
639	 3,38473069054689E-02 
640	 3,55158198523441E-02 
641	 0,036273190412754 
642	 3,59728075615531E-02 
643	 3,48421308607551E-02 
644	 3,49754568467756E-02 
645	 3,55673238863133E-02 
646	 3,53038578885757E-02 
647	 3,56785029363047E-02 
648	 3,65234496347249E-02 
649	 3,60107486187164E-02 
650	 3,54016480019613E-02 
651	 3,54896588767289E-02 
652	 3,52513718157689E-02 
653	 3,47784544196052E-02 
654	 3,45538724683142E-02 
655	 3,43478328376396E-02 
656	 3,40289622597588E-02 
657	 3,33185052959775E-02 
658	 0,032591913773194 
659	 3,22392631729995E-02 
660	 3,17331100480095E-02 
661	 3,11113063610485E-02 
662	 3,07909266037534E-02 
663	 0,030578977521878 
664	 0,030400733714375 
665	 3,04709548982195E-02 
666	 3,05228499178575E-02 
667	 0,030121312545347 
668	 2,96697098386788E-02 
669	 2,93793252830814E-02 
670	 2,95499773823503E-02 
671	 2,97834541855777E-02 
672	 2,97540275746212E-02 
673	 2,96638526184083E-02 
674	 2,95852842544876E-02 
675	 0,02961190070531 
676	 2,96259378341964E-02 
677	 0,029614242414918 
678	 2,97521524701162E-02 
679	 0,029945265524651 
680	 0,030066136527803 
681	 0,030172401507088 
682	 3,04408582829569E-02 
683	 3,14219461605619E-02 
684	 3,22578739751153E-02 
685	 3,24765765293205E-02 
686	 3,27935530297681E-02 
687	 3,32229442413288E-02 
688	 3,35872124195425E-02 
689	 3,41855026123175E-02 
690	 3,50909162516316E-02 
691	 3,61115300132561E-02 
692	 3,74352984991849E-02 
693	 0,039214601372296 
694	 4,11062510704434E-02 
695	 4,30853454208913E-02 
696	 4,52287229121207E-02 
697	 4,77449054225591E-02 
698	 5,07746852113526E-02 
699	 0,054536822978512 
700	 5,85088602604981E-02 
701	 6,20080505127914E-02 
702	 6,55986834125089E-02 
703	 6,94254243682872E-02 
704	 7,35022267222122E-02 
705	 0,077643650188807 
706	 8,16857666124238E-02 
707	 8,53096216081052E-02 
708	 8,87936452972114E-02 
709	 9,27477940905047E-02 
710	 9,66787494968255E-02 
711	 0,100320509636665 
712	 0,103366412314965 
713	 0,106023998652056 
714	 0,108514598290954 
715	 0,111088641499525 
716	 0,113722495209939 
717	 0,116276349726121 
718	 0,118289161401866 
719	 0,119713150554329 
720	 0,121561275511812 
721	 0,123650296108218 
722	 0,125618604437641 
723	 0,126897862447015 
724	 0,127656455342072 
725	 0,128936164174012 
726	 0,130336079991514 
727	 0,131590681926433 
728	 0,132751638989111 
729	 0,133519124399098 
730	 0,133282095831598 
731	 0,133866242029466 
732	 0,135478844577953 
733	 0,136300554990913 
734	 0,136849544764726 
735	 0,137615418731975 
736	 0,138165210359054 
737	 0,13858309778945 
738	 0,139239199659261 
739	 0,139920341388453 
740	 0,140493679269269 
741	 0,140661447256584 
742	 0,140885303498785 
743	 0,141705606063951 
744	 0,142266598548141 
745	 0,142540626710418 
746	 0,143104860328007 
747	 0,143604697349373 
748	 0,143836020540183 
749	 0,143738138126139 
750	 0,143689195673613 
751	 0,144265100710811 
752	 0,144835188288315 
753	 0,145166280568331 
754	 0,145116978998055 
755	 0,145112449291674 
756	 0,145466265659737 
757	 0,14597116077224 
758	 0,14651352731428 
759	 0,146982164480572 
760	 0,147127247963866 
761	 0,1469587925917 
762	 0,146926338532522 
763	 0,147079306116191 
764	 0,147436428735853 
765	 0,147994321111509 
766	 0,148513177451564 
767	 0,148361814720604 
768	 0,14846161087174 
769	 0,149088778792676 
770	 0,149504923614539 
771	 0,149681455850361 
772	 0,149673477977586 
773	 0,149999003315458 
774	 0,15054657975253 
775	 0,150606206239544 
776	 0,150466653125622 
777	 0,150355265658749 
778	 0,150683280949129 
779	 0,151322495227646 
780	 0,152020267638862 
781	 0,152322609364374 
782	 0,152214847047062 
783	 0,15214232674976 
784	 0,152268376908928 
785	 0,152661469445342 
786	 0,152873992667602 
787	 0,152963481217054 
788	 0,153147103659977 
789	 0,153471596540166 
790	 0,153809393850237 
791	 0,153531904358502 
792	 0,153366259313031 
793	 0,153863016946476 
794	 0,154241589150212 
795	 0,15445834523707 
796	 0,154730158795505 
797	 0,154867538154184 
798	 0,154863561052268 
799	 0,15495450072373 
800	 0,155161166273257 
801	 0,155465765184783 
802	 0,155490139254117 
803	 0,155328981928169 
804	 0,155360691748186 
805	 0,155689487967579 
806	 0,156260902569037 
807	 0,156466386618891 
808	 0,156650129009294 
809	 0,157191750892931 
810	 0,157178169704462 
811	 0,156841875568461 
812	 0,157407579186534 
813	 0,157652985745874 
814	 0,157275946259459 
815	 0,157782348955087 
816	 0,158427865694573 
817	 0,158216812068794 
818	 0,158456108872061 
819	 0,159122127660352 
820	 0,159275958628797 
821	 0,159268227304982 
822	 0,159295608160476 
823	 0,15952372168116 
824	 0,159886291348386 
825	 0,160265507197018 
826	 0,160325174621109 
827	 0,160233924137648 
828	 0,16087569867248 
829	 0,16111604211942 
830	 0,160565643733717 
831	 0,160863130537313 
832	 0,161513551469778 
833	 0,161607993564839 
834	 0,161692321365001 
835	 0,16180406043654 
836	 0,161653268261554 
837	 0,161494956773133 
838	 0,161524571912543 
839	 0,162000494232245 
840	 0,162561068317015 
841	 0,162672931049012 
842	 0,162580898740222 
843	 0,162387136211316 
844	 0,16214387625866 
845	 0,162254696111955 
846	 0,162847909199784 
847	 0,163138425174505 
848	 0,163150965085127 
849	 0,163067029670733 
850	 0,162851722710038 
851	 0,162631353288009 
852	 0,162718941128996 
853	 0,163081659070919 
854	 0,163675094022656 
855	 0,164424608414841 
856	 0,164879698786838 
857	 0,164483252671443 
858	 0,163919857715362 
859	 0,163553065743139 
860	 0,163857122302735 
861	 0,1642432851705 
862	 0,164397413000264 
863	 0,16456049982373 
864	 0,16461347627089 
865	 0,164391122759831 
866	 0,164595317937322 
867	 0,165034399634534 
868	 0,164449360023733 
869	 0,16467692881876 
870	 0,166167189736683 
871	 0,165955531088072 
872	 0,165078886474499 
873	 0,165105052472471 
874	 0,165494610972553 
875	 0,165915904603748 
876	 0,165618862987597 
877	 0,165807864378271 
878	 0,166762656262855 
879	 0,166953474160603 
880	 0,166834535280339 
881	 0,16702078786764 
882	 0,167313894332822 
883	 0,167558814330478 
884	 0,167380894190928 
885	 0,167480306815942 
886	 0,167913314965841 
887	 0,167509319163713 
888	 0,167164768754432 
889	 0,167733491877201 
890	 0,168384956355517 
891	 0,168729826809692 
892	 0,168233565006554 
893	 0,168156267194917 
894	 0,168717972434687 
895	 0,16886364939901 
896	 0,168679339831281 
897	 0,168348107501196 
898	 0,168660340399619 
899	 0,169287350512373 
900	 0,169418401138458 
901	 0,16949569436366 
902	 0,169723287899579 
903	 0,170475292217967 
904	 0,17084945562017 
905	 0,170411164007649 
906	 0,170438897235497 
907	 0,17071629613288 
908	 0,170710328114654 
909	 0,170279837283754 
910	 0,169725456207803 
911	 0,170093075273963 
912	 0,170560442422844 
913	 0,170704714652019 
914	 0,170613607987605 
915	 0,170327534865447 
916	 0,169938427439861 
917	 0,170490503738957 
918	 0,171109350899903 
919	 0,168694501700044 
920	 0,168731696852947 
921	 0,171924314663388 
922	 0,171829325218948 
923	 0,170553180430627 
924	 0,170207400099008 
925	 0,171377511648457 
926	 0,172704666556411 
927	 0,171547582796544 
928	 0,170809321952593 
929	 0,171109668897774 
930	 0,171542774734716 
931	 0,171306141018921 
932	 0,170207317543775 
933	 0,170431436842638 
934	 0,171338212135163 
935	 0,17178867156677 
936	 0,172164679385134 
937	 0,172344895105839 
938	 0,171810207308132 
939	 0,171559930840186 
940	 0,171723679025026 
941	 0,170675601449443 
942	 0,170016038849842 
943	 0,171007154542346 
944	 0,170617777472672 
945	 0,169526331331204 
946	 0,169917518591353 
947	 0,170270107199914 
948	 0,170091615132402 
949	 0,169233746667964 
950	 0,1683728275678 
951	 0,167851956813823 
952	 0,166753583762755 
953	 0,166748928162373 
954	 0,169609293457964 
955	 0,16815931629997 
956	 0,163862890577375 
957	 0,164333643231042 
958	 0,165684077326954 
959	 0,166652200576628 
960	 0,167569513546585 
961	 0,168010064224016 
962	 0,167623876796139 
963	 0,166076133074086 
964	 0,164828961012481 
965	 0,166058511282651 
966	 0,168084069718513 
967	 0,169338124934686 
968	 0,166333200275223 
969	 0,164947025210298 
970	 0,166811117423138 
971	 0,165339471664793 
972	 0,16438553349798 
973	 0,16728295802615 
974	 0,166811396230816 
975	 0,164975546693086 
976	 0,167503559675892 
977	 0,168720806011819 
978	 0,167942528100642 
979	 0,168351662108083 
980	 0,168815261179517 
981	 0,168854150904154 
982	 0,168892105437904 
983	 0,169056440533086 
984	 0,169381198702438 
985	 0,169011459026469 
986	 0,168299025505146 
987	 0,168203522868773 
988	 0,168394418915881 
989	 0,168588649778851 
990	 0,167878245185102 
991	 0,168378571865952 
992	 0,170624593441361 
993	 0,170738969118356 
994	 0,170285093625552 
995	 0,171097405544754 
996	 0,171206382529037 
997	 0,170280393251479 
998	 0,168234668245751 
999	 0,168621053549906 
1000	 0,171472436802388 
1001	 0,173006103562241 
1002	 0,173834477180608 
1003	 0,174129156211089 
1004	 0,173634342437636 
1005	 0,172478975303855 
1006	 0,171236996268687 
1007	 0,174955235196944 
1008	 0,17923112969317 
1009	 0,174969695283044 
1010	 0,172832720606481 
1011	 0,174059447534497 
1012	 0,172260834410642 
1013	 0,173319038256635 
1014	 0,17823301732037 
1015	 0,178921149164135 
1016	 0,177068848460256 
1017	 0,174842497808182 
1018	 0,174698798977626 
1019	 0,175440942152168 
1020	 0,174656731814865 
1021	 0,17449744709714 
1022	 0,175659631852091 
1023	 0,17898241578779 
1024	 0,17994163793003 
1025	 0,178088486918229 
1026	 0,179021064360019 
1027	 0,18215333041937 
1028	 0,18588391134147 
1029	 0,183061930357523 
1030	 0,179108214717254 
1031	 0,180950222253905 
1032	 0,182477674180731 
1033	 0,182068966720674 
1034	 0,178754082787621 
1035	 0,180354826481572 
1036	 0,185761410310042 
1037	 0,182113291820114 
1038	 0,181283471566411 
1039	 0,186794302833197 
1040	 0,187336052235498 
1041	 0,186448172902827 
1042	 0,187014515917858 
1043	 0,183044546442112 
1044	 0,181192684266872 
1045	 0,190549329679287 
1046	 0,195095056431805 
1047	 0,193177937142662 
1048	 0,189449037884301 
1049	 0,188042405810574 
1050	 0,189242228142169 
1051	 0,186784861181815 
1052	 0,187052578988711 
1053	 0,192173449774634 
1054	 0,196197973658393 
1055	 0,194924284667463 
1056	 0,186601692383547 
1057	 0,185500330986447 
1058	 0,189959497295289 
1059	 0,194066307219303 
1060	 0,191969869389145 
1061	 0,186535016010299 
1062	 0,187773783404749 
1063	 0,194900486941781 
1064	 0,202862425041298 
1065	 0,194453786996001 
1066	 0,185174031751189 
1067	 0,18288604690362 
1068	 0,185610860841947 
1069	 0,19238208420834 
1070	 0,200506360253795 
1071	 0,196982341982248 
1072	 0,191326186136358 
1073	 0,195190747123518 
1074	 0,18571914566361 
1075	 0,172050942795014 
