Wavelength	SCO-GRA00444.asd
325	 0,310356525060095 
326	 0,236541267037197 
327	 0,160858029410442 
328	 0,123749714378377 
329	 9,01323749411435E-02 
330	 0,101765238382619 
331	 0,157106978288846 
332	 0,167291472309186 
333	 0,133798518815417 
334	 5,98554491270927E-02 
335	 4,69820303537854E-02 
336	 0,120341536560451 
337	 0,192615939075995 
338	 0,205168708377733 
339	 0,126412527953576 
340	 0,109531959118085 
341	 0,129849986269556 
342	 0,08094341911983 
343	 2,56744142744794E-02 
344	-8,00203964258821E-03 
345	 3,34501634823372E-02 
346	 6,47786180832105E-02 
347	 1,60607872883005E-02 
348	 3,18087853218684E-02 
349	 8,84221035177206E-02 
350	 4,35659961661432E-02 
351	 0,015217998275632 
352	 3,89279715645331E-02 
353	 0,087655349318504 
354	 0,096706680143664 
355	-1,72291292758032E-03 
356	-2,94049844323285E-02 
357	 1,98529577519218E-02 
358	 4,57342068481852E-02 
359	 4,87064666058278E-02 
360	 2,88027056079456E-02 
361	 8,98169945811291E-03 
362	 7,29909395395084E-03 
363	 4,13670480970057E-02 
364	 6,22860437072695E-02 
365	 6,08557160494802E-02 
366	 5,85020771366964E-02 
367	 4,38270843985118E-02 
368	 1,48268496978602E-02 
369	 1,57012887771542E-02 
370	 3,38389313840765E-02 
371	 3,89637798017883E-02 
372	 3,42338886658889E-02 
373	 2,51613845372123E-02 
374	 3,37616872569464E-02 
375	 4,28719143957041E-02 
376	 3,94496042954999E-02 
377	 2,02783310466163E-02 
378	 5,59206291091744E-03 
379	 3,94440583393114E-02 
380	 5,85515508705537E-02 
381	 4,54837859255962E-02 
382	 2,72887699332348E-02 
383	 2,17366045322336E-02 
384	 4,25154662656714E-02 
385	 4,56080118346546E-02 
386	 3,50648594521769E-02 
387	 4,07910717736819E-02 
388	 4,99290580474222E-02 
389	 5,38391756225728E-02 
390	 0,036297731330861 
391	 1,93147777106444E-02 
392	 3,11458690745189E-02 
393	 3,59399172881203E-02 
394	 2,90761585177469E-02 
395	 0,021553408190613 
396	 2,06206255919751E-02 
397	 2,80002747144932E-02 
398	 2,84090949509407E-02 
399	 2,41231220871017E-02 
400	 2,10163713576012E-02 
401	 2,15293084272383E-02 
402	 2,54692262169724E-02 
403	 2,98956339889913E-02 
404	 0,030252672316858 
405	 0,024231108267841 
406	 2,03681896828866E-02 
407	 1,84267177669812E-02 
408	 1,37958515302159E-02 
409	 1,59605245256694E-02 
410	 2,34681665611836E-02 
411	 1,66774927453425E-02 
412	 1,16555382524983E-02 
413	 2,29564730369011E-02 
414	 2,25638344341933E-02 
415	 1,32954166197845E-02 
416	 1,41614072629542E-02 
417	 1,81991103796439E-02 
418	 2,18062261161766E-02 
419	 0,02031410516311 
420	 1,81883065941379E-02 
421	 2,14060200448913E-02 
422	 2,26654396379192E-02 
423	 0,020126616450896 
424	 1,27311358395794E-02 
425	 8,6436337561837E-03 
426	 1,25517943831869E-02 
427	 1,79165113881609E-02 
428	 2,14071280864022E-02 
429	 1,88837915442754E-02 
430	 1,64886309876505E-02 
431	 1,63019912078137E-02 
432	 1,81082664621623E-02 
433	 1,95949817083261E-02 
434	 1,88436495036451E-02 
435	 1,86083631901289E-02 
436	 1,82109226294117E-02 
437	 1,43197348765111E-02 
438	 1,14212520644011E-02 
439	 1,17528368561854E-02 
440	 1,67040513505845E-02 
441	 2,09753984327883E-02 
442	 1,80270684253534E-02 
443	 1,56372003617325E-02 
444	 1,53314323924234E-02 
445	 0,01509690986837 
446	 1,52559792685188E-02 
447	 0,0159394675812 
448	 1,69205987758602E-02 
449	 1,74663753725507E-02 
450	 1,62727865536788E-02 
451	 1,57502301453297E-02 
452	 1,63952425012131E-02 
453	 1,63969987866082E-02 
454	 1,67705906321218E-02 
455	 1,83866490425829E-02 
456	 1,89794962049181E-02 
457	 1,86200941163031E-02 
458	 1,89235141981144E-02 
459	 1,81804501612492E-02 
460	 1,59790341147008E-02 
461	 1,41155681667453E-02 
462	 1,38028827987464E-02 
463	 1,63044683094912E-02 
464	 1,77792388310628E-02 
465	 1,73626754327367E-02 
466	 1,59680356939219E-02 
467	 1,48291641988112E-02 
468	 1,48147241655703E-02 
469	 0,015410371732034 
470	 1,65338786541375E-02 
471	 1,84559030271431E-02 
472	 1,86096295767163E-02 
473	 1,66728569996331E-02 
474	 1,58989224666937E-02 
475	 1,43339851150687E-02 
476	 1,01338777950364E-02 
477	 9,3520647470027E-03 
478	 1,25232914000262E-02 
479	 0,018447293635408 
480	 1,97951271987402E-02 
481	 1,43559638391528E-02 
482	 1,36477982043453E-02 
483	 1,62195021530741E-02 
484	 1,80592201571115E-02 
485	 1,76055116399247E-02 
486	 1,52550040542375E-02 
487	 1,46201711139256E-02 
488	 1,49495037143011E-02 
489	 1,54574608866582E-02 
490	 1,44034232122534E-02 
491	 1,30000110840044E-02 
492	 1,50175396416464E-02 
493	 0,015265884832047 
494	 1,30001611133701E-02 
495	 1,46602139185093E-02 
496	 0,017212153059564 
497	 1,67957794625921E-02 
498	 1,73469959949269E-02 
499	 1,84137625359055E-02 
500	 1,56734523486425E-02 
501	 1,40907345633602E-02 
502	 1,59267765307842E-02 
503	 0,014896766030856 
504	 1,24196722448388E-02 
505	 1,22754348131797E-02 
506	 0,012999118361003 
507	 1,41911279764993E-02 
508	 1,62257536779676E-02 
509	 1,69149821814227E-02 
510	 1,45889580077323E-02 
511	 1,50496959386893E-02 
512	 1,71781789286722E-02 
513	 1,49747264934547E-02 
514	 1,31770425270947E-02 
515	 1,38124914698236E-02 
516	 0,015866456993057 
517	 1,73283271024345E-02 
518	 1,56373247173268E-02 
519	 1,48809830025914E-02 
520	 1,56500802185977E-02 
521	 0,015808461904193 
522	 1,57946925795364E-02 
523	 1,59212574856504E-02 
524	 1,58604881948052E-02 
525	 1,56553204515045E-02 
526	 1,55384751713412E-02 
527	 1,50657030851526E-02 
528	 1,44514108982835E-02 
529	 1,57617971644136E-02 
530	 1,67688731746394E-02 
531	 1,48576941366515E-02 
532	 1,40512058210699E-02 
533	 1,47617896898349E-02 
534	 1,51966255209317E-02 
535	 1,54362088684811E-02 
536	 1,55081150738342E-02 
537	 1,56175378280208E-02 
538	 0,015584876104024 
539	 1,50062619517468E-02 
540	 1,44527888414734E-02 
541	 1,41863700194361E-02 
542	 1,43835436198811E-02 
543	 1,47402480914146E-02 
544	 1,49377630750297E-02 
545	 1,48237020224537E-02 
546	 1,45405583269179E-02 
547	 1,46227521768736E-02 
548	 1,44557811325631E-02 
549	 1,39537287711666E-02 
550	 1,47658454176335E-02 
551	 1,57268446443164E-02 
552	 1,47438858089586E-02 
553	 0,014260425292916 
554	 1,46831280938854E-02 
555	 1,46150880761793E-02 
556	 1,45691178385991E-02 
557	 1,49243623467463E-02 
558	 0,01451848984037 
559	 1,37926243055075E-02 
560	 1,44050457332065E-02 
561	 1,48094781314095E-02 
562	 1,45151449772269E-02 
563	 1,46312967944034E-02 
564	 1,48318810819452E-02 
565	 1,45658478249636E-02 
566	 1,43125657521089E-02 
567	 1,42773093223345E-02 
568	 1,47772950676045E-02 
569	 1,49769036498401E-02 
570	 1,44034609631347E-02 
571	 1,46246660791103E-02 
572	 1,52171408718861E-02 
573	 1,46051056846969E-02 
574	 1,48353139207458E-02 
575	 1,61581401182617E-02 
576	 1,59056870190671E-02 
577	 1,52230844810547E-02 
578	 1,55858790040235E-02 
579	 1,60553863010648E-02 
580	 0,016329043960919 
581	 1,60312513044172E-02 
582	 1,61936117732332E-02 
583	 1,71842876498566E-02 
584	 1,67763930881047E-02 
585	 0,015996895404214 
586	 0,017227591205204 
587	 1,77666240398666E-02 
588	 1,71141809547433E-02 
589	 1,68953640520042E-02 
590	 1,71152682382834E-02 
591	 1,76580770604264E-02 
592	 1,74426408112102E-02 
593	 1,69083216948996E-02 
594	 1,80025562295725E-02 
595	 1,85242389384253E-02 
596	 1,76808365101354E-02 
597	 1,76295403106663E-02 
598	 1,79326483119849E-02 
599	 1,75879001575299E-02 
600	 1,74006118522493E-02 
601	 1,74287603651946E-02 
602	 1,69406936769004E-02 
603	 1,68311461541282E-02 
604	 1,76739820760271E-02 
605	 1,74439825464597E-02 
606	 1,65012117006842E-02 
607	 1,65980419087332E-02 
608	 1,67379461409137E-02 
609	 1,65459792646758E-02 
610	 1,58155524256192E-02 
611	 1,56576553349225E-02 
612	 1,74172734417298E-02 
613	 1,78669094197266E-02 
614	 1,68806649244617E-02 
615	 1,69821299059141E-02 
616	 1,70203904854303E-02 
617	 1,63451526683261E-02 
618	 0,015914564034169 
619	 1,58317588864518E-02 
620	 1,60359167335437E-02 
621	 0,016141869746832 
622	 1,60604071735048E-02 
623	 1,61939069481614E-02 
624	 1,62085653453438E-02 
625	 1,57667060314916E-02 
626	 1,55469975718736E-02 
627	 1,56445866844635E-02 
628	 1,58753584117801E-02 
629	 1,60788999070909E-02 
630	 1,61875150665628E-02 
631	 1,63948661753859E-02 
632	 0,016897263090937 
633	 1,80634342598043E-02 
634	 1,77119906853849E-02 
635	 1,59759023298214E-02 
636	 1,61594518420123E-02 
637	 1,70441607373628E-02 
638	 1,74831933088387E-02 
639	 1,75546165118796E-02 
640	 1,76481619893195E-02 
641	 1,89797602281018E-02 
642	 1,93345842368055E-02 
643	 1,81825410533113E-02 
644	 1,83218964031535E-02 
645	 1,89190246964093E-02 
646	 1,85577341535053E-02 
647	 1,85813057531005E-02 
648	 1,90819571169142E-02 
649	 1,92966607058059E-02 
650	 1,91275115290582E-02 
651	 1,85715324796712E-02 
652	 1,82585681111525E-02 
653	 1,82013619136056E-02 
654	 1,82276105762523E-02 
655	 0,018084378499984 
656	 1,76848996106804E-02 
657	 1,71321262231141E-02 
658	 1,67107927047426E-02 
659	 1,66830593876331E-02 
660	 1,64018515750025E-02 
661	 1,58729707384143E-02 
662	 1,54985528779734E-02 
663	 1,53234256980853E-02 
664	 1,53961479995312E-02 
665	 1,58269499821357E-02 
666	 1,61924322963115E-02 
667	 1,58643775459906E-02 
668	 1,51161682407039E-02 
669	 1,42934369064509E-02 
670	 1,43336395830777E-02 
671	 1,45055195466063E-02 
672	 0,014253331090463 
673	 1,45220727279604E-02 
674	 1,51113832789507E-02 
675	 1,52051523683862E-02 
676	 1,51695093791718E-02 
677	 1,51227610357782E-02 
678	 1,50035573917601E-02 
679	 1,49737102275774E-02 
680	 0,01521651509239 
681	 1,51354068920098E-02 
682	 1,48849829560197E-02 
683	 1,54450938195676E-02 
684	 1,59333915225574E-02 
685	 1,59148629771288E-02 
686	 0,0164571037955 
687	 0,017157451336065 
688	 0,01702157461029 
689	 1,73251038150813E-02 
690	 1,83047227172939E-02 
691	 1,91306108412252E-02 
692	 0,019994439865602 
693	 2,11054336341011E-02 
694	 2,25164046757802E-02 
695	 2,42928004991887E-02 
696	 2,64821495638595E-02 
697	 2,92583423579786E-02 
698	 3,25929470040151E-02 
699	 3,58602347694285E-02 
700	 3,93944203689451E-02 
701	 4,36864277071071E-02 
702	 0,04820356200449 
703	 5,29017597506265E-02 
704	 5,81384787658413E-02 
705	 6,35827629278562E-02 
706	 6,89876576598567E-02 
707	 0,074141648564479 
708	 7,93111802240103E-02 
709	 0,085103643060168 
710	 9,05539069335815E-02 
711	 0,095501029636972 
712	 0,100787716647371 
713	 0,106035124671168 
714	 0,110854968163145 
715	 0,115601483975081 
716	 0,120250117766307 
717	 0,124654821235657 
718	 0,128500324816023 
719	 0,131785364235251 
720	 0,135394437634782 
721	 0,139030903275091 
722	 0,142211197922104 
723	 0,144809147729459 
724	 0,147082560963584 
725	 0,149977074836978 
726	 0,152788699263659 
727	 0,155060953760185 
728	 0,156926764534549 
729	 0,158533213076137 
730	 0,160083310598337 
731	 0,161766157953773 
732	 0,163487266344207 
733	 0,164511298720155 
734	 0,165441585249851 
735	 0,166803728473367 
736	 0,168103568878792 
737	 0,16916553282344 
738	 0,169773245243371 
739	 0,170354147709658 
740	 0,171079372624583 
741	 0,171794496423521 
742	 0,172533122910207 
743	 0,173340193745297 
744	 0,174023428698162 
745	 0,174530057819313 
746	 0,1748069341689 
747	 0,175297796026786 
748	 0,176132264132373 
749	 0,176340871325817 
750	 0,176327038907535 
751	 0,176884164123365 
752	 0,17738762601834 
753	 0,177697634528814 
754	 0,17795866510068 
755	 0,178203217535116 
756	 0,178465170828648 
757	 0,1787996344363 
758	 0,179183915781127 
759	 0,179582289526169 
760	 0,179752932218558 
761	 0,179725858096493 
762	 0,180044721091599 
763	 0,180451145388477 
764	 0,180678903965715 
765	 0,180928839682923 
766	 0,181117345285365 
767	 0,180865864378013 
768	 0,180995698751147 
769	 0,181661642221888 
770	 0,181639761012764 
771	 0,181452524590771 
772	 0,181823576895415 
773	 0,182249075238369 
774	 0,182591631853911 
775	 0,182842210146823 
776	 0,182836337037252 
777	 0,182582549788738 
778	 0,18273447444107 
779	 0,183107634746691 
780	 0,183318741260126 
781	 0,183534591321166 
782	 0,183717634590118 
783	 0,183579258619862 
784	 0,183626397897676 
785	 0,184140750730293 
786	 0,184533704992274 
787	 0,184584347306721 
788	 0,184018387776824 
789	 0,184086579580272 
790	 0,184826258412068 
791	 0,184622801507009 
792	 0,184327585783156 
793	 0,184609230192857 
794	 0,184681990058447 
795	 0,184502636250512 
796	 0,184219927560222 
797	 0,184135052007657 
798	 0,184338504063799 
799	 0,184632023278845 
800	 0,184893344420675 
801	 0,185029204307208 
802	 0,185275968920402 
803	 0,18552917824496 
804	 0,18537605930629 
805	 0,18540477065879 
806	 0,185758373308293 
807	 0,185910882486643 
808	 0,185960402653468 
809	 0,186048507747703 
810	 0,186081047030546 
811	 0,186057132269336 
812	 0,18599783649608 
813	 0,185994314064476 
814	 0,186128653831301 
815	 0,18660177942409 
816	 0,187024929614116 
817	 0,186942839022721 
818	 0,187005847908504 
819	 0,187296687194933 
820	 0,187585801659175 
821	 0,187895181375804 
822	 0,18819226021726 
823	 0,188294947482419 
824	 0,188333105917828 
825	 0,188492510887172 
826	 0,188415077252569 
827	 0,188282118278007 
828	 0,188977621162774 
829	 0,189383191002335 
830	 0,189019310968497 
831	 0,188954149051533 
832	 0,189024101837971 
833	 0,188849867434423 
834	 0,188834512377631 
835	 0,188977425685828 
836	 0,188949834336112 
837	 0,188932904647403 
838	 0,189013963068611 
839	 0,18908482613289 
840	 0,189147251530308 
841	 0,189219959092074 
842	 0,189327235236924 
843	 0,189439534707478 
844	 0,189448614743121 
845	 0,189413247733187 
846	 0,18939181478225 
847	 0,189536887540704 
848	 0,18971491269598 
849	 0,189720301708577 
850	 0,189538982998577 
851	 0,189195825992419 
852	 0,188760689967797 
853	 0,188379610386488 
854	 0,188276194822248 
855	 0,189343040059906 
856	 0,190390721029174 
857	 0,189724790950035 
858	 0,189032768606354 
859	 0,188722940299594 
860	 0,188565708162741 
861	 0,188833221424513 
862	 0,189462310960224 
863	 0,189162978051105 
864	 0,188559382207919 
865	 0,188637735180992 
866	 0,189246076100398 
867	 0,189940264310445 
868	 0,189371501529358 
869	 0,18945422879447 
870	 0,190751023984491 
871	 0,190683467239966 
872	 0,190041685734271 
873	 0,190052343710051 
874	 0,190162009113001 
875	 0,190267633264926 
876	 0,190299084434922 
877	 0,190707133590842 
878	 0,191478891642038 
879	 0,191352147213457 
880	 0,191303850115459 
881	 0,192383401885099 
882	 0,192393972514028 
883	 0,191596967168091 
884	 0,191807361223076 
885	 0,192295275798702 
886	 0,192761246575511 
887	 0,19285629611247 
888	 0,193175580134448 
889	 0,19417037013241 
890	 0,19405308654645 
891	 0,193132514845864 
892	 0,192724640981141 
893	 0,192982280057075 
894	 0,193672925299157 
895	 0,193378182561936 
896	 0,192742312343732 
897	 0,192429003865852 
898	 0,193324693131844 
899	 0,194542888833178 
900	 0,194275437915487 
901	 0,194154038218729 
902	 0,194455802756117 
903	 0,194404556856245 
904	 0,194230922034578 
905	 0,194135740178372 
906	 0,19442684398747 
907	 0,194900060253253 
908	 0,195213706746762 
909	 0,194945317533182 
910	 0,194301784012981 
911	 0,194269370300524 
912	 0,19432129738953 
913	 0,194253842145568 
914	 0,194436775423741 
915	 0,194413468587857 
916	 0,19372837501759 
917	 0,194057361040743 
918	 0,194611102160023 
919	 0,192272444552608 
920	 0,191682859565919 
921	 0,193569627009198 
922	 0,193057862742682 
923	 0,191833189364992 
924	 0,191550636568584 
925	 0,19245800888321 
926	 0,193582288082839 
927	 0,193135330872878 
928	 0,192214187482656 
929	 0,191309217449965 
930	 0,190972367030921 
931	 0,19067549097166 
932	 0,190099432584739 
933	 0,189361853516336 
934	 0,188770431591265 
935	 0,18867593299318 
936	 0,188742203008552 
937	 0,18858024596922 
938	 0,187367000245498 
939	 0,186180377475759 
940	 0,185414184718459 
941	 0,184563106582045 
942	 0,184198327848784 
943	 0,184655646318312 
944	 0,183883099734037 
945	 0,182312930001128 
946	 0,18136007631064 
947	 0,18127030472652 
948	 0,181462482212717 
949	 0,179654033175833 
950	 0,176824710586422 
951	 0,17391481758577 
952	 0,172575031459809 
953	 0,172842552894903 
954	 0,174283756293424 
955	 0,172479031267596 
956	 0,168690846524883 
957	 0,168615876460006 
958	 0,169153058206345 
959	 0,16939542019552 
960	 0,170237874256886 
961	 0,170059035546373 
962	 0,167862748556379 
963	 0,16595601476306 
964	 0,16512212748523 
965	 0,165920733803555 
966	 0,167696744042341 
967	 0,169207193096157 
968	 0,16739627485812 
969	 0,166251078529672 
970	 0,167065365297192 
971	 0,166439835281935 
972	 0,166015447338683 
973	 0,167242617431829 
974	 0,16723000551505 
975	 0,166297375392323 
976	 0,165875093749571 
977	 0,166081463916626 
978	 0,166680070866678 
979	 0,166543567330192 
980	 0,166809989999745 
981	 0,167580450407618 
982	 0,165862938469558 
983	 0,164527389698885 
984	 0,166458276314084 
985	 0,167961142754943 
986	 0,167851192318774 
987	 0,165108513687659 
988	 0,165554848572429 
989	 0,168880696702273 
990	 0,167105710821229 
991	 0,165620800747783 
992	 0,166927824471396 
993	 0,167677135276637 
994	 0,168504472888792 
995	 0,170116960418434 
996	 0,169773392940247 
997	 0,168529630315421 
998	 0,169443479067056 
999	 0,169185572764207 
1000	 0,167970749781791 
1001	 0,169963777106061 
1002	 0,171645179944692 
1003	 0,171327404630267 
1004	 0,17019220087196 
1005	 0,170538306317165 
1006	 0,174035832905971 
1007	 0,174805763592357 
1008	 0,174320085806072 
1009	 0,177023362992938 
1010	 0,178243151218455 
1011	 0,177078317192019 
1012	 0,174261790301614 
1013	 0,174852679217701 
1014	 0,179505969804237 
1015	 0,178615650001804 
1016	 0,176800647645455 
1017	 0,178167084449823 
1018	 0,179436279861055 
1019	 0,179031418712764 
1020	 0,175491786284222 
1021	 0,175471043336383 
1022	 0,17902170853001 
1023	 0,181774406046698 
1024	 0,182413732525988 
1025	 0,181292741868525 
1026	 0,182882690888839 
1027	 0,185896464888419 
1028	 0,188613216690064 
1029	 0,186356418725212 
1030	 0,182762579229127 
1031	 0,182713159342236 
1032	 0,18558498692351 
1033	 0,188611059488879 
1034	 0,186412068218069 
1035	 0,189659361404785 
1036	 0,197630342207029 
1037	 0,197282883698183 
1038	 0,193004889286519 
1039	 0,188171228764598 
1040	 0,188151288808615 
1041	 0,191266972725094 
1042	 0,194931501772135 
1043	 0,19230909310005 
1044	 0,189907881212745 
1045	 0,197140047806945 
1046	 0,196986078810563 
1047	 0,191349812009589 
1048	 0,193556367603779 
1049	 0,192649327337797 
1050	 0,188357239896507 
1051	 0,191472876890115 
1052	 0,199363281197194 
1053	 0,207705506877008 
1054	 0,205901247863788 
1055	 0,196235875544531 
1056	 0,18399927708053 
1057	 0,189013565796338 
1058	 0,200735049085493 
1059	 0,200140394040409 
1060	 0,192448633715511 
1061	 0,186428335865147 
1062	 0,200876181571885 
1063	 0,205771356202542 
1064	 0,198520792779312 
1065	 0,20481985703278 
1066	 0,202198591751688 
1067	 0,185850570815453 
1068	 0,187047955594849 
1069	 0,195467470714126 
1070	 0,200486315403442 
1071	 0,192265383794872 
1072	 0,189536386124892 
1073	 0,212545068714532 
1074	 0,20877600457378 
1075	 0,193354820968186 
