Wavelength	SCO-GRA00242.asd
325	 0,183467750994092 
326	 0,218562405387065 
327	 0,34041324057963 
328	 0,4802312982332 
329	 0,414969513830529 
330	 0,316983818648159 
331	 0,260666694341816 
332	 0,181411125928385 
333	 0,111926906364721 
334	 0,134118230491602 
335	 0,161576549666665 
336	 0,174231091298891 
337	 0,252826366929916 
338	 0,282098814790398 
339	 0,177986689197818 
340	 0,185201345409257 
341	 0,248170539019991 
342	 0,143824688852919 
343	 9,71509350293628E-02 
344	 0,148781254261608 
345	 0,136973365775664 
346	 0,106100739225214 
347	 0,101795071119212 
348	 0,120917825628816 
349	 0,136862720347622 
350	 7,93870044019982E-02 
351	 6,15245673318229E-02 
352	 0,107064318242995 
353	 0,129086603997247 
354	 0,110336847256489 
355	 3,99180201161333E-02 
356	 4,50011248718896E-02 
357	 0,106672291585486 
358	 9,79154422477615E-02 
359	 8,32166581269915E-02 
360	 8,72073690816338E-02 
361	 6,17855466340137E-02 
362	 4,13620935291804E-02 
363	 7,53340062189609E-02 
364	 9,83769819464341E-02 
365	 9,91225922620693E-02 
366	 0,103089085628187 
367	 0,101327018719522 
368	 8,97719493603898E-02 
369	 8,26821151963752E-02 
370	 7,74513580876354E-02 
371	 6,43951438889772E-02 
372	 6,30995209459535E-02 
373	 7,51404931113575E-02 
374	 8,13067161877607E-02 
375	 8,71202088859202E-02 
376	 0,09644313687646 
377	 9,30475769120196E-02 
378	 8,05028075645086E-02 
379	 6,90633642037856E-02 
380	 0,076115024762072 
381	 9,72469540398635E-02 
382	 8,29219464653036E-02 
383	 6,14890095819781E-02 
384	 6,27435510710815E-02 
385	 7,70758050923857E-02 
386	 9,16540888233506E-02 
387	 8,08738539621551E-02 
388	 8,33747188797684E-02 
389	 0,105332546621699 
390	 9,21378170727658E-02 
391	 6,87280622081951E-02 
392	 7,01279838149097E-02 
393	 7,48880633907259E-02 
394	 7,80809106909019E-02 
395	 7,93725380919473E-02 
396	 0,083309050422472 
397	 8,99572230289235E-02 
398	 8,21043900502722E-02 
399	 0,070458166364529 
400	 7,32747611655676E-02 
401	 7,29624016902566E-02 
402	 0,070366220050132 
403	 8,75861660780871E-02 
404	 9,39843032811615E-02 
405	 7,19706465422653E-02 
406	 6,42834695727873E-02 
407	 6,67954607896668E-02 
408	 5,56238224107297E-02 
409	 5,44375011860075E-02 
410	 6,49400372498893E-02 
411	 0,063695256104146 
412	 5,90373236841656E-02 
413	 5,96223714867371E-02 
414	 5,98657789190835E-02 
415	 5,86901862596396E-02 
416	 5,50320124470239E-02 
417	 5,46349514869591E-02 
418	 5,89273482136999E-02 
419	 6,03507100590148E-02 
420	 6,11612468811711E-02 
421	 6,50646032542117E-02 
422	 6,73233616373001E-02 
423	 6,63486685400982E-02 
424	 6,03219303620257E-02 
425	 5,57306179393912E-02 
426	 5,69673333202977E-02 
427	 6,42129364931721E-02 
428	 7,07987610299097E-02 
429	 6,49983497805208E-02 
430	 6,05823018422621E-02 
431	 6,07847952598703E-02 
432	 5,96830707557034E-02 
433	 5,90043467575779E-02 
434	 6,03437063594521E-02 
435	 6,21509833175177E-02 
436	 6,27582976595859E-02 
437	 5,84707151638595E-02 
438	 5,58698030915174E-02 
439	 5,73835749942466E-02 
440	 5,97935358021284E-02 
441	 6,08871812858493E-02 
442	 5,83806584157925E-02 
443	 5,85283733967482E-02 
444	 6,13405904297224E-02 
445	 6,20227767917819E-02 
446	 5,95696536584954E-02 
447	 5,43878403804803E-02 
448	 5,57601714185369E-02 
449	 6,01353977594069E-02 
450	 0,058656693639266 
451	 5,62971639692301E-02 
452	 5,54139941553651E-02 
453	 5,97836496584779E-02 
454	 6,32053994688919E-02 
455	 6,03018782786341E-02 
456	 5,94295330553187E-02 
457	 6,13111396607668E-02 
458	 6,39335915913726E-02 
459	 6,36616546133894E-02 
460	 5,96968492609419E-02 
461	 0,058318104108943 
462	 5,92043130039381E-02 
463	 6,09925964767663E-02 
464	 6,18806219905445E-02 
465	 0,061578560620419 
466	 6,12777922186073E-02 
467	 6,07114756695196E-02 
468	 5,99326142268534E-02 
469	 6,10622279565923E-02 
470	 6,25591201838132E-02 
471	 6,05857363268447E-02 
472	 6,05340708408569E-02 
473	 0,063035524207537 
474	 6,25862792005749E-02 
475	 6,04393509350149E-02 
476	 5,82624006358048E-02 
477	 0,058967153486431 
478	 6,20132627016855E-02 
479	 6,47048708450329E-02 
480	 6,44410143005558E-02 
481	 6,08071003594767E-02 
482	 6,07651317904459E-02 
483	 6,23486869593656E-02 
484	 6,15127622198784E-02 
485	 6,04161433180809E-02 
486	 5,99563487741889E-02 
487	 6,17354008919884E-02 
488	 6,23025391659358E-02 
489	 5,94512391464667E-02 
490	 5,90724554736803E-02 
491	 6,03699937046068E-02 
492	 5,92736282956277E-02 
493	 5,80339924844683E-02 
494	 5,74841380051096E-02 
495	 5,75496678405083E-02 
496	 5,90412285607383E-02 
497	 6,27562011963087E-02 
498	 0,064059962229463 
499	 6,25219124731446E-02 
500	 0,060112465803638 
501	 5,91207737943548E-02 
502	 6,05317166813846E-02 
503	 0,060178058118412 
504	 5,91932254298299E-02 
505	 6,05991141156715E-02 
506	 6,12917341068682E-02 
507	 6,09423859456945E-02 
508	 6,25357197606626E-02 
509	 6,35318446823807E-02 
510	 6,17698272046885E-02 
511	 0,061767099690917 
512	 6,33059369118566E-02 
513	 0,063666215630889 
514	 6,32179452511756E-02 
515	 6,24233332375927E-02 
516	 6,34616699544096E-02 
517	 6,51344294930349E-02 
518	 6,55053786153163E-02 
519	 6,63016042679012E-02 
520	 6,74209142167282E-02 
521	 6,70124015467953E-02 
522	 6,62453723959519E-02 
523	 6,60381842393332E-02 
524	 6,64649948833068E-02 
525	 6,69798914982779E-02 
526	 6,63453594157027E-02 
527	 0,065537500329157 
528	 6,50155035128921E-02 
529	 0,065268935426728 
530	 6,54486040826323E-02 
531	 6,45742409411964E-02 
532	 6,37569647937391E-02 
533	 6,34591482954431E-02 
534	 6,42014789227258E-02 
535	 6,50842346509456E-02 
536	 6,54899970247268E-02 
537	 6,53522193195328E-02 
538	 6,48343029713067E-02 
539	 6,41914637023922E-02 
540	 6,39483566093392E-02 
541	 6,42197128625438E-02 
542	 0,064498820613771 
543	 0,064932079138541 
544	 0,065654827867096 
545	 6,60766668017671E-02 
546	 6,60172823732664E-02 
547	 6,52281352057115E-02 
548	 6,49409998248463E-02 
549	 6,56811532320875E-02 
550	 6,63250749231054E-02 
551	 6,67182622307722E-02 
552	 6,68724155736454E-02 
553	 6,66059907769648E-02 
554	 6,59119464489501E-02 
555	 0,06480196311721 
556	 6,41776659330509E-02 
557	 6,47074803676665E-02 
558	 6,50854894469553E-02 
559	 6,49593986764137E-02 
560	 6,40296541123313E-02 
561	 6,35326535920475E-02 
562	 6,38073614508545E-02 
563	 6,32831986204386E-02 
564	 0,062783089685908 
565	 6,35685588448174E-02 
566	 6,34228739735616E-02 
567	 6,25930038663976E-02 
568	 6,40893340089345E-02 
569	 6,54987132523019E-02 
570	 6,52391602241572E-02 
571	 6,55065564219415E-02 
572	 6,63485886649492E-02 
573	 0,067134200264675 
574	 6,78603366252818E-02 
575	 6,85560719329854E-02 
576	 0,069533835404385 
577	 7,06619986632925E-02 
578	 7,17709571662429E-02 
579	 7,31918399002605E-02 
580	 7,47031626931061E-02 
581	 7,54567009707764E-02 
582	 7,60456622732627E-02 
583	 7,67663565642306E-02 
584	 7,69764355990311E-02 
585	 7,73078218829534E-02 
586	 7,90407918580367E-02 
587	 8,01851050932889E-02 
588	 0,080351868586483 
589	 8,07941199164925E-02 
590	 8,14134004768642E-02 
591	 8,20544778432913E-02 
592	 8,25432578465731E-02 
593	 8,28049223492646E-02 
594	 8,27177311152826E-02 
595	 8,27827197978211E-02 
596	 8,31884101706541E-02 
597	 0,083442003864121 
598	 8,33933883460274E-02 
599	 8,28764679217819E-02 
600	 8,31512139436753E-02 
601	 8,39988921794929E-02 
602	 8,31225662903086E-02 
603	 8,20189612611178E-02 
604	 0,081838197786846 
605	 8,10677592699133E-02 
606	 7,99636618480031E-02 
607	 0,079768653651487 
608	 7,95170843795494E-02 
609	 7,89053052675536E-02 
610	 7,83243413804037E-02 
611	 7,80267047509444E-02 
612	 7,82709447334426E-02 
613	 7,80458569488314E-02 
614	 7,72601274914868E-02 
615	 7,64856317561059E-02 
616	 7,59838701819822E-02 
617	 7,58975934383123E-02 
618	 0,075796307066378 
619	 7,55763265328408E-02 
620	 7,51627376424379E-02 
621	 0,074898910587814 
622	 7,48541390617565E-02 
623	 7,46522811324005E-02 
624	 7,46642551867827E-02 
625	 7,52507377117169E-02 
626	 7,53267985576204E-02 
627	 7,49727406755795E-02 
628	 7,51014398175795E-02 
629	 7,54742617366117E-02 
630	 7,59432017341788E-02 
631	 7,61232063498077E-02 
632	 7,66490504028159E-02 
633	 0,078695388220553 
634	 7,94876067069065E-02 
635	 7,87504819773642E-02 
636	 7,90080969313944E-02 
637	 7,96545639569395E-02 
638	 8,01685299386315E-02 
639	 8,14720064713107E-02 
640	 8,32581853764343E-02 
641	 8,45985894276038E-02 
642	 8,49695007401305E-02 
643	 8,43871650690625E-02 
644	 8,45759027960903E-02 
645	 8,52193172774328E-02 
646	 8,56814727148292E-02 
647	 8,57723166831451E-02 
648	 8,55055580350109E-02 
649	 8,52354678962324E-02 
650	 8,48330013307501E-02 
651	 8,41967860746289E-02 
652	 8,32176848607672E-02 
653	 8,20455050626596E-02 
654	 8,09611371518239E-02 
655	 8,01455143302444E-02 
656	 7,94905551577011E-02 
657	 7,81881348627671E-02 
658	 7,64937688663986E-02 
659	 7,47408474187884E-02 
660	 7,30443492900512E-02 
661	 7,15436561054397E-02 
662	 7,04832513073289E-02 
663	 6,94620351830747E-02 
664	 6,83373324146666E-02 
665	 6,77697661340193E-02 
666	 6,72649682723533E-02 
667	 6,59472825531118E-02 
668	 6,48048327461853E-02 
669	 6,40922330735772E-02 
670	 6,35944452785686E-02 
671	 6,30948894304056E-02 
672	 6,24951049514269E-02 
673	 6,28221697206359E-02 
674	 6,36177056611302E-02 
675	 6,34209805436921E-02 
676	 6,30379902991041E-02 
677	 6,28030504924737E-02 
678	 6,29042573047719E-02 
679	 6,31338723330314E-02 
680	 6,32218805123208E-02 
681	 6,35130295004302E-02 
682	 6,40432313925364E-02 
683	 6,46071218718315E-02 
684	 6,54414339466301E-02 
685	 6,67159390076941E-02 
686	 6,85939334751935E-02 
687	 7,06863418280115E-02 
688	 7,22469814751265E-02 
689	 7,43638968460884E-02 
690	 7,74091911753478E-02 
691	 0,081260058946592 
692	 8,57625896325959E-02 
693	 9,07717652148113E-02 
694	 9,62822146222088E-02 
695	 0,102500235840707 
696	 0,109904089098848 
697	 0,118180604219419 
698	 0,127188111036236 
699	 0,136998278681093 
700	 0,147497609955457 
701	 0,158520660445228 
702	 0,169716631768448 
703	 0,181085506317539 
704	 0,193114609191847 
705	 0,20515546226639 
706	 0,21677698159779 
707	 0,228012899663696 
708	 0,239060952840581 
709	 0,250324171956564 
710	 0,261307152254794 
711	 0,271791027641449 
712	 0,281693076247402 
713	 0,291309710777032 
714	 0,300844426756787 
715	 0,309592897827328 
716	 0,317517518675377 
717	 0,324844519663579 
718	 0,332034301347043 
719	 0,33916596312375 
720	 0,345321564463608 
721	 0,350802608253994 
722	 0,356106163606824 
723	 0,361087447882197 
724	 0,365670516849796 
725	 0,369596640022565 
726	 0,37342229374128 
727	 0,377390444284102 
728	 0,380414304283614 
729	 0,382841092405119 
730	 0,385526441997042 
731	 0,388189975347413 
732	 0,390676280727064 
733	 0,392587115162378 
734	 0,394358504472025 
735	 0,396355817239862 
736	 0,398056746580814 
737	 0,399448881314684 
738	 0,400745971569511 
739	 0,401861676230513 
740	 0,402822959353276 
741	 0,403875446523719 
742	 0,404906350702913 
743	 0,405767194786923 
744	 0,406846697995431 
745	 0,408106508143248 
746	 0,409261073474273 
747	 0,409883695626904 
748	 0,409850391410469 
749	 0,410090604984246 
750	 0,410601295478364 
751	 0,4111771409982 
752	 0,411823015214566 
753	 0,41245735447756 
754	 0,412880471608398 
755	 0,413126867253457 
756	 0,41326281402349 
757	 0,413594668815662 
758	 0,414102256448215 
759	 0,414675718370273 
760	 0,414907992242019 
761	 0,414813463209541 
762	 0,415161340927832 
763	 0,415710109736388 
764	 0,416165322897008 
765	 0,416187209273369 
766	 0,415939245584353 
767	 0,41598240368097 
768	 0,416234598408216 
769	 0,416638038682047 
770	 0,416997539970364 
771	 0,417130048330576 
772	 0,416869648235186 
773	 0,417131498787277 
774	 0,417756353788205 
775	 0,41754540345281 
776	 0,417433101677805 
777	 0,417831287674262 
778	 0,418030178372849 
779	 0,418016508992086 
780	 0,417884930675683 
781	 0,417975765071885 
782	 0,418331434908616 
783	 0,418728046445061 
784	 0,419045826798175 
785	 0,419191997575797 
786	 0,419158162242754 
787	 0,419094068980379 
788	 0,419277601928458 
789	 0,41918298166115 
790	 0,418793817426964 
791	 0,418665401282338 
792	 0,418871781348977 
793	 0,419382892581372 
794	 0,419363582863392 
795	 0,419030042525387 
796	 0,419176145898695 
797	 0,419229850047614 
798	 0,419076057183535 
799	 0,41902855794429 
800	 0,419192928459322 
801	 0,419602645489586 
802	 0,419498675534544 
803	 0,419052362491956 
804	 0,419010144966307 
805	 0,419386779921615 
806	 0,420032897013134 
807	 0,41999107269874 
808	 0,419820939940662 
809	 0,420173518121375 
810	 0,420426949451661 
811	 0,420472803928076 
812	 0,420378361673707 
813	 0,42018790330125 
814	 0,420071123103708 
815	 0,420814510662184 
816	 0,421555492590049 
817	 0,421239129423517 
818	 0,421309206323618 
819	 0,421807277985287 
820	 0,421808559236241 
821	 0,421965770056046 
822	 0,422443637569357 
823	 0,422256256280251 
824	 0,421913717658347 
825	 0,422177980302025 
826	 0,42230238977097 
827	 0,422248529793491 
828	 0,422464219823803 
829	 0,422708799141119 
830	 0,422833682507878 
831	 0,422714475916864 
832	 0,422633324459492 
833	 0,422979636753925 
834	 0,423256964495941 
835	 0,423430094970227 
836	 0,423883483983255 
837	 0,424051113099301 
838	 0,423683143139247 
839	 0,42340296144981 
840	 0,423136837348031 
841	 0,422674377119951 
842	 0,422698637066276 
843	 0,423121982332641 
844	 0,423054739567745 
845	 0,423024784138027 
846	 0,423263740264982 
847	 0,423293254134549 
848	 0,423170616046528 
849	 0,423051741958477 
850	 0,423039991878843 
851	 0,423062057225946 
852	 0,422760037090706 
853	 0,422441217812539 
854	 0,422353292248835 
855	 0,422941367530329 
856	 0,423511096561357 
857	 0,423081930928089 
858	 0,422547244116687 
859	 0,422250474878719 
860	 0,422509418527848 
861	 0,42274524890861 
862	 0,422657740629744 
863	 0,422462515396434 
864	 0,422472025647481 
865	 0,42304001940172 
866	 0,423423737150496 
867	 0,423335188759379 
868	 0,42234443170129 
869	 0,422292779258657 
870	 0,423716460614086 
871	 0,423924018079012 
872	 0,423474302033977 
873	 0,423361108695889 
874	 0,423717743065714 
875	 0,424286656324473 
876	 0,424156553286528 
877	 0,424085652313385 
878	 0,424373655358267 
879	 0,424756820474523 
880	 0,42514079412195 
881	 0,425426525236279 
882	 0,425280136597853 
883	 0,424957166358456 
884	 0,425357053300353 
885	 0,425344287765012 
886	 0,424777132109376 
887	 0,42517057822056 
888	 0,42562940559331 
889	 0,425298021221313 
890	 0,42533546499126 
891	 0,425568114459667 
892	 0,425092222726929 
893	 0,425340421424094 
894	 0,426281019356007 
895	 0,425594767217245 
896	 0,424832223326584 
897	 0,425231038742443 
898	 0,425898943904738 
899	 0,426400371895231 
900	 0,426223702238752 
901	 0,426078820808921 
902	 0,426056466850066 
903	 0,425626725341111 
904	 0,425232530421635 
905	 0,425212307362406 
906	 0,425893827609482 
907	 0,426468406182838 
908	 0,425782869289441 
909	 0,425020994533626 
910	 0,424680020756894 
911	 0,425319943177013 
912	 0,425709416760246 
913	 0,42540552646654 
914	 0,425789691196652 
915	 0,42602262182653 
916	 0,425122846517693 
917	 0,424564344782138 
918	 0,42426398294434 
919	 0,4229951733678 
920	 0,423158540123747 
921	 0,424900213041191 
922	 0,424843476111939 
923	 0,423692205653689 
924	 0,422325868608657 
925	 0,421952972288495 
926	 0,422504729143683 
927	 0,423479914453944 
928	 0,423185084715473 
929	 0,421610735177811 
930	 0,420822872109461 
931	 0,420128062940266 
932	 0,419260530703712 
933	 0,419178166606801 
934	 0,41941119535458 
935	 0,419244300062533 
936	 0,419417170885766 
937	 0,419261845993823 
938	 0,416347649223776 
939	 0,414268691019413 
940	 0,414298298113415 
941	 0,414949565758222 
942	 0,415502708155256 
943	 0,415320758400478 
944	 0,414307243942209 
945	 0,412472790444622 
946	 0,409804872415786 
947	 0,408573132834555 
948	 0,408816131846436 
949	 0,408167368626273 
950	 0,406240687677534 
951	 0,403173220229718 
952	 0,401241094993133 
953	 0,400898673839708 
954	 0,402125151225284 
955	 0,400280119269838 
956	 0,396453261688358 
957	 0,396033234579437 
958	 0,396305821226455 
959	 0,396165847636555 
960	 0,394892077314452 
961	 0,393166809663222 
962	 0,391648369189771 
963	 0,390815551380306 
964	 0,390684273131442 
965	 0,391112050063088 
966	 0,391528818437673 
967	 0,391490169849438 
968	 0,390129141013791 
969	 0,389526356075848 
970	 0,390399189254104 
971	 0,391234947716137 
972	 0,391423709908236 
973	 0,390574910927489 
974	 0,389599849125731 
975	 0,38912744879848 
976	 0,389949921194204 
977	 0,389953409794569 
978	 0,388925186577471 
979	 0,388103875518825 
980	 0,388809374945073 
981	 0,391190396556722 
982	 0,392033239400285 
983	 0,391572368398285 
984	 0,390494968662396 
985	 0,390439465563482 
986	 0,390939015525318 
987	 0,390367460463635 
988	 0,390668569546602 
989	 0,391715009051934 
990	 0,390812156106328 
991	 0,390995007802342 
992	 0,393287419430363 
993	 0,39369798295013 
994	 0,393172553164259 
995	 0,393115712443375 
996	 0,394109911662027 
997	 0,395221648729522 
998	 0,39429196759393 
999	 0,394949235729208 
1000	 0,397297047444058 
1001	 0,398007464111478 
1002	 0,397660260384144 
1003	 0,396877556707925 
1004	 0,397606694308974 
1005	 0,39824047065681 
1006	 0,397387226642316 
1007	 0,399369571302761 
1008	 0,402356751240491 
1009	 0,401938853939974 
1010	 0,40089592691641 
1011	 0,400195736121335 
1012	 0,400366839114414 
1013	 0,400591204182591 
1014	 0,401015890234698 
1015	 0,404531984863421 
1016	 0,407230280699734 
1017	 0,406100539619426 
1018	 0,406309892916948 
1019	 0,407227459517945 
1020	 0,406814310297713 
1021	 0,407157262187734 
1022	 0,408419986063336 
1023	 0,409964746185959 
1024	 0,409340517990021 
1025	 0,407232623914496 
1026	 0,411154057855697 
1027	 0,41369194544745 
1028	 0,410578866081246 
1029	 0,408988527065053 
1030	 0,40768801783277 
1031	 0,404764582217378 
1032	 0,406284583425271 
1033	 0,410362894113931 
1034	 0,410909187080754 
1035	 0,413338007292146 
1036	 0,417338818760523 
1037	 0,417192952474754 
1038	 0,414002656423709 
1039	 0,409616558509799 
1040	 0,409862667570234 
1041	 0,411615927944647 
1042	 0,412075939201093 
1043	 0,412574145150035 
1044	 0,415187019130348 
1045	 0,422035275940379 
1046	 0,423864354342186 
1047	 0,420879926702192 
1048	 0,418510960739154 
1049	 0,41675660189713 
1050	 0,416595439459205 
1051	 0,420408203223334 
1052	 0,42314806638765 
1053	 0,422629472167653 
1054	 0,423893205161578 
1055	 0,424181335121457 
1056	 0,421433140454754 
1057	 0,421426068032678 
1058	 0,421803167392722 
1059	 0,418398093776063 
1060	 0,415571135709334 
1061	 0,415615729288464 
1062	 0,421681890753981 
1063	 0,425193851730211 
1064	 0,424612222193743 
1065	 0,42553512009464 
1066	 0,419551159899286 
1067	 0,40716320140094 
1068	 0,412154205254305 
1069	 0,417171759497209 
1070	 0,409975729786306 
1071	 0,405786728354955 
1072	 0,410157014381416 
1073	 0,426034293401955 
1074	 0,431019279741035 
1075	 0,424285871644718 
