Wavelength	SCO-GRA00406.asd
325	 0,19293464830499 
326	 0,167260558872255 
327	 6,70746261428458E-03 
328	-0,229521850975536 
329	-0,140537367163147 
330	-2,09810651780326E-03 
331	 5,45062061521856E-02 
332	 5,74344240245878E-02 
333	 4,50567969611121E-02 
334	 9,37688839093021E-02 
335	 0,119197798049471 
336	 9,84316440031937E-02 
337	 9,33221224360661E-02 
338	 6,63655367222419E-02 
339	-3,66477686141857E-03 
340	 2,05765152092812E-02 
341	 0,100697285787817 
342	 0,103269077362743 
343	 0,083661424556985 
344	 6,19505861007844E-02 
345	 5,56983560277168E-02 
346	 4,37405364152651E-02 
347	 4,26888472075483E-03 
348	 2,14364427570563E-03 
349	 3,02247034140613E-02 
350	 2,89558930840419E-02 
351	 3,30913268217834E-02 
352	 4,88097055865051E-02 
353	 4,20955043402163E-02 
354	 2,56502311382722E-02 
355	 1,57268420980057E-02 
356	-1,34526345610639E-02 
357	-3,44901987936481E-02 
358	 0,037659215614613 
359	 7,31054806523301E-02 
360	 1,90097494265577E-02 
361	-6,60238317937528E-03 
362	-6,2509153326424E-04 
363	 1,94883536272775E-02 
364	 3,11513884825526E-02 
365	 3,03652048469341E-02 
366	 3,15733000059611E-02 
367	 2,86421020510033E-02 
368	 1,99610711253792E-02 
369	 2,57574071723122E-02 
370	 3,47488264692586E-02 
371	 2,33019889310347E-02 
372	 1,81216167042432E-02 
373	 2,63010843732595E-02 
374	 4,48380055812999E-02 
375	 4,79441937302355E-02 
376	 2,08702282245157E-02 
377	 1,97313265311392E-02 
378	 3,78896441990211E-02 
379	 3,93553715788771E-02 
380	 0,040359373133091 
381	 0,043290284184371 
382	 3,86464590232318E-02 
383	 3,21361275354785E-02 
384	 2,99199283123508E-02 
385	 3,38791005576439E-02 
386	 0,040232301672124 
387	 4,04045480286109E-02 
388	 4,03688323750524E-02 
389	 4,15933278213674E-02 
390	 3,91956029854902E-02 
391	 3,55886030630772E-02 
392	 3,41897588058874E-02 
393	 3,71661539091265E-02 
394	 4,46213180669064E-02 
395	 5,74419386359609E-02 
396	 6,12172605126422E-02 
397	 5,05913720026687E-02 
398	 3,99863322963995E-02 
399	 3,49948159217547E-02 
400	 4,06165208097057E-02 
401	 4,50060901209896E-02 
402	 4,73391493664297E-02 
403	 5,99120089963896E-02 
404	 6,20743713741517E-02 
405	 4,26778149303915E-02 
406	 3,68910313140033E-02 
407	 4,20374279662933E-02 
408	 4,06493330000151E-02 
409	 4,23981183408696E-02 
410	 4,73351542072403E-02 
411	 4,50769184744441E-02 
412	 4,10933026841158E-02 
413	 0,040969063415724 
414	 4,44769481250083E-02 
415	 4,81682475093055E-02 
416	 4,31849307847598E-02 
417	 4,17456506071295E-02 
418	 0,047209850974577 
419	 4,64389283881391E-02 
420	 4,45776533398967E-02 
421	 4,93636281417777E-02 
422	 5,10892862219503E-02 
423	 0,048062203730098 
424	 4,15805377607074E-02 
425	 3,82588061778323E-02 
426	 4,18769697863876E-02 
427	 4,66752283339285E-02 
428	 5,02089211416044E-02 
429	 4,98249942242318E-02 
430	 4,87287427723529E-02 
431	 4,80738664266257E-02 
432	 4,77854348430523E-02 
433	 4,80988662986748E-02 
434	 4,92023464725988E-02 
435	 5,14926233770667E-02 
436	 5,33411587503422E-02 
437	 5,05176434843033E-02 
438	 4,80658711880234E-02 
439	 4,83253023515823E-02 
440	 5,15509865094901E-02 
441	 5,51070453952462E-02 
442	 5,58142858560696E-02 
443	 5,15571586620082E-02 
444	 4,57726119130986E-02 
445	 5,10585330623216E-02 
446	 5,67967691336815E-02 
447	 5,64127589848398E-02 
448	 0,055134250459808 
449	 5,34055177262412E-02 
450	 5,05745949870738E-02 
451	 4,82649214396513E-02 
452	 4,79829024520199E-02 
453	 5,37632870951763E-02 
454	 5,78655955357419E-02 
455	 5,37007600981097E-02 
456	 0,0527713491274 
457	 5,57214351921897E-02 
458	 5,86540052904561E-02 
459	 5,84873620424562E-02 
460	 5,45380137453211E-02 
461	 5,22713958321052E-02 
462	 5,32511787016303E-02 
463	 5,86554692374199E-02 
464	 6,04080258867778E-02 
465	 5,75972988940175E-02 
466	 5,45733716329033E-02 
467	 0,054513695020495 
468	 5,88178561408949E-02 
469	 5,94354422953376E-02 
470	 0,057621626594117 
471	 5,81940230040646E-02 
472	 6,02531906380698E-02 
473	 6,24486847261038E-02 
474	 5,94937387856538E-02 
475	 5,58667009040741E-02 
476	 5,60876519803524E-02 
477	 5,59944274099486E-02 
478	 5,60413755341517E-02 
479	 0,06024815479429 
480	 6,23912071973114E-02 
481	 6,01965588396158E-02 
482	 5,99983243855034E-02 
483	 6,11459417023987E-02 
484	 6,16315041288497E-02 
485	 6,18671721072747E-02 
486	 6,19201980167699E-02 
487	 6,17950655266319E-02 
488	 6,19471190872099E-02 
489	 6,25987679375785E-02 
490	 6,22561874955619E-02 
491	 6,13579559939324E-02 
492	 6,13713860449225E-02 
493	 6,17731439683528E-02 
494	 6,24259070299134E-02 
495	 6,33636936627107E-02 
496	 0,064479287108318 
497	 6,56620573483376E-02 
498	 6,70175981177101E-02 
499	 6,76879242907644E-02 
500	 6,46554407699238E-02 
501	 6,33973240438203E-02 
502	 6,64363407487664E-02 
503	 6,68781831926769E-02 
504	 6,56262710292569E-02 
505	 6,57746842740578E-02 
506	 6,66969702758677E-02 
507	 6,81444635118973E-02 
508	 6,98688997954422E-02 
509	 7,03830570932702E-02 
510	 6,86106115144274E-02 
511	 6,91499859538587E-02 
512	 7,11301871433885E-02 
513	 6,99565564744099E-02 
514	 6,84429134349815E-02 
515	 6,80757871714952E-02 
516	 6,99600871356267E-02 
517	 7,24112417336424E-02 
518	 7,30571947896134E-02 
519	 0,073123319686667 
520	 7,29171240868306E-02 
521	 0,072270406107609 
522	 7,22320541092904E-02 
523	 7,34262530250979E-02 
524	 7,39665367913592E-02 
525	 7,40101537084567E-02 
526	 0,074700809184957 
527	 7,50144535549875E-02 
528	 7,48476133381328E-02 
529	 7,55576944212779E-02 
530	 7,64165517839468E-02 
531	 7,65021096291066E-02 
532	 0,076753632305031 
533	 7,71302556710566E-02 
534	 7,66854054971953E-02 
535	 7,68500334165507E-02 
536	 7,82674813182662E-02 
537	 7,88453380342342E-02 
538	 7,86557059384375E-02 
539	 7,83141681757383E-02 
540	 0,07839177288396 
541	 7,90173627011945E-02 
542	 7,95898218770906E-02 
543	 8,02920819377752E-02 
544	 8,12863422814614E-02 
545	 8,15720179953796E-02 
546	 8,13864339998348E-02 
547	 8,19541612642086E-02 
548	 0,08259098591855 
549	 8,29913654088622E-02 
550	 8,35134480301573E-02 
551	 8,38299561626055E-02 
552	 8,33692858663561E-02 
553	 8,31573522735109E-02 
554	 8,33863133373988E-02 
555	 8,32746238742607E-02 
556	 8,39810269364044E-02 
557	 8,62328320928718E-02 
558	 8,64676983634965E-02 
559	 8,52565477357888E-02 
560	 8,55869715132921E-02 
561	 8,65716651154295E-02 
562	 8,76762527682395E-02 
563	 8,74859930292115E-02 
564	 8,71356463783463E-02 
565	 8,82834247191932E-02 
566	 8,88304467122712E-02 
567	 0,088499114989969 
568	 8,81966894474423E-02 
569	 8,83961400995816E-02 
570	 8,93811379118338E-02 
571	 9,04716108811179E-02 
572	 9,11817211313014E-02 
573	 9,07360895949423E-02 
574	 0,09034102350085 
575	 9,04752809753731E-02 
576	 9,09615269688074E-02 
577	 9,15875686205065E-02 
578	 0,09211954049207 
579	 9,24403376018626E-02 
580	 9,25948427225049E-02 
581	 9,28883489431193E-02 
582	 9,29340301639133E-02 
583	 9,25949275001347E-02 
584	 9,25005089533731E-02 
585	 9,28851320761623E-02 
586	 9,40386223551468E-02 
587	 0,09482383884102 
588	 9,48815613058743E-02 
589	 9,44256116075844E-02 
590	 9,42486388743791E-02 
591	 9,50148978100235E-02 
592	 9,52289959544768E-02 
593	 9,50249316656915E-02 
594	 9,57059315578787E-02 
595	 9,59742459033338E-02 
596	 9,54544896766572E-02 
597	 9,60186334471494E-02 
598	 9,66453301305854E-02 
599	 9,54858121154229E-02 
600	 9,55912527364233E-02 
601	 9,71705636592405E-02 
602	 9,76622342460927E-02 
603	 9,73288186684404E-02 
604	 0,096500056729274 
605	 9,59998817002559E-02 
606	 9,60351418935474E-02 
607	 9,67150926459914E-02 
608	 9,72226363200734E-02 
609	 9,72283966519972E-02 
610	 9,70173416380434E-02 
611	 9,70272786490651E-02 
612	 9,77482376694351E-02 
613	 9,80173978382404E-02 
614	 9,78507235843851E-02 
615	 9,84524298097423E-02 
616	 9,85925929996687E-02 
617	 0,097657647840542 
618	 9,76829780807165E-02 
619	 9,81370664803005E-02 
620	 9,73291645483948E-02 
621	 9,68439997056478E-02 
622	 0,097099185821907 
623	 0,09738638308022 
624	 9,77632825331129E-02 
625	 9,83077796534355E-02 
626	 9,85337950120727E-02 
627	 0,098468504481991 
628	 9,84931302533302E-02 
629	 9,86376944891188E-02 
630	 9,89018744432934E-02 
631	 9,89906214508604E-02 
632	 0,099213926585144 
633	 0,100184345508761 
634	 0,10021599628714 
635	 9,92847681698094E-02 
636	 9,94775169704717E-02 
637	 9,99000396153404E-02 
638	 9,98118106296362E-02 
639	 0,100532831499552 
640	 0,101715900463057 
641	 0,102038859708666 
642	 0,101756293372324 
643	 0,101144822936847 
644	 0,101389514066911 
645	 0,101793582534976 
646	 0,101305669924166 
647	 0,101504251366389 
648	 0,102339749643644 
649	 0,102233854898304 
650	 0,102050072865574 
651	 0,102300040733793 
652	 0,102022552550218 
653	 0,101543063050223 
654	 0,101841551240841 
655	 0,101773398976322 
656	 0,101134447379575 
657	 0,100928849167348 
658	 0,100790476659761 
659	 0,100290415202071 
660	 9,97401823544002E-02 
661	 9,93124888427768E-02 
662	 9,93157072020598E-02 
663	 9,92407153638867E-02 
664	 9,88900575385661E-02 
665	 9,89292359412859E-02 
666	 9,90121834689014E-02 
667	 9,84860898425164E-02 
668	 9,80334421608369E-02 
669	 9,78703142943187E-02 
670	 9,80497683787362E-02 
671	 9,80092200882719E-02 
672	 9,74090488084302E-02 
673	 9,78333148172661E-02 
674	 9,89339884153278E-02 
675	 9,92990236477153E-02 
676	 0,099263362007107 
677	 9,90040334217755E-02 
678	 9,89865155004185E-02 
679	 9,91992069400078E-02 
680	 9,95657413955904E-02 
681	 0,100099012351791 
682	 0,100741675961576 
683	 0,101359183529721 
684	 0,101965664794684 
685	 0,102561988351049 
686	 0,103162543597255 
687	 0,1036638590647 
688	 0,103855997188445 
689	 0,104269863428592 
690	 0,105064233875885 
691	 0,106084247128355 
692	 0,107189764508651 
693	 0,108232022352278 
694	 0,108853904838862 
695	 0,109325417596774 
696	 0,110460229356765 
697	 0,111863375274876 
698	 0,11333739699233 
699	 0,11478224321525 
700	 0,116013214633375 
701	 0,116821779328249 
702	 0,117799342534797 
703	 0,119010356513845 
704	 0,120102421165794 
705	 0,121154946906034 
706	 0,122214064274777 
707	 0,123193410681356 
708	 0,124241089801893 
709	 0,125693077861095 
710	 0,126761925195707 
711	 0,127330954884712 
712	 0,128146610123958 
713	 0,128937575968147 
714	 0,129447080363475 
715	 0,130218773316368 
716	 0,131097386141845 
717	 0,131388006070447 
718	 0,131745957116777 
719	 0,132396687613934 
720	 0,13288517507623 
721	 0,133364570503125 
722	 0,13407954257524 
723	 0,134512155645911 
724	 0,134693086090386 
725	 0,135153755132925 
726	 0,13569022754639 
727	 0,136152242507114 
728	 0,136430217214867 
729	 0,136530262063228 
730	 0,136455523168158 
731	 0,136805199229856 
732	 0,137555753256743 
733	 0,137702682512973 
734	 0,137798726875174 
735	 0,138318057310824 
736	 0,138526382093238 
737	 0,138528393181955 
738	 0,138924189253539 
739	 0,139228907214464 
740	 0,139332329931078 
741	 0,139701608571651 
742	 0,1400393809638 
743	 0,139975881962233 
744	 0,14020194950526 
745	 0,140716254530535 
746	 0,141013074708553 
747	 0,141276064692896 
748	 0,141556948752364 
749	 0,141562589912579 
750	 0,141464092442853 
751	 0,141560687548559 
752	 0,141845398738806 
753	 0,14219738226529 
754	 0,142139119379824 
755	 0,142153867720777 
756	 0,142572973703838 
757	 0,142960455753741 
758	 0,143258515451849 
759	 0,143541460437673 
760	 0,143466487392091 
761	 0,143080225756858 
762	 0,143097654564489 
763	 0,143329373514865 
764	 0,143567108136252 
765	 0,144057703707944 
766	 0,144569371531456 
767	 0,144410381841157 
768	 0,144271266304129 
769	 0,144433386271757 
770	 0,144746305807734 
771	 0,145042019961299 
772	 0,145142751613475 
773	 0,145327327366156 
774	 0,145592909396442 
775	 0,145751700266838 
776	 0,145783249554868 
777	 0,145718552014564 
778	 0,145836170878803 
779	 0,146118007466865 
780	 0,146492826216896 
781	 0,146552181965778 
782	 0,146362618241813 
783	 0,146573103352006 
784	 0,146943726616108 
785	 0,147271059797489 
786	 0,147284146054764 
787	 0,14717107106074 
788	 0,14733214240804 
789	 0,147599227057428 
790	 0,147852647639701 
791	 0,147792370305124 
792	 0,147800509081185 
793	 0,148131418387041 
794	 0,14798433572688 
795	 0,147629103143999 
796	 0,147895946123815 
797	 0,148365805867175 
798	 0,148846362018346 
799	 0,149203798848864 
800	 0,149155158084734 
801	 0,148530678033333 
802	 0,148594444701891 
803	 0,149125286236217 
804	 0,148857123323911 
805	 0,148854452447649 
806	 0,149344401450576 
807	 0,149370630097822 
808	 0,149331008648736 
809	 0,149692526510274 
810	 0,149757764193713 
811	 0,14958354758775 
812	 0,149744220072774 
813	 0,149819112635899 
814	 0,14972167985757 
815	 0,149991004224396 
816	 0,150418233760467 
817	 0,150702962283765 
818	 0,150955322103433 
819	 0,151098088089953 
820	 0,150826073628719 
821	 0,150718130201478 
822	 0,150976909768353 
823	 0,150884352447884 
824	 0,150755277904894 
825	 0,151071016361702 
826	 0,151209322212082 
827	 0,151128146782593 
828	 0,151181985827294 
829	 0,151285160940932 
830	 0,151393310732832 
831	 0,151502143059229 
832	 0,151519870330463 
833	 0,151331626905621 
834	 0,151386747589858 
835	 0,151606288941572 
836	 0,151277644511999 
837	 0,15128383753031 
838	 0,15191634458079 
839	 0,151572958598528 
840	 0,151074516993204 
841	 0,151800840848837 
842	 0,152112027286968 
843	 0,151831594974847 
844	 0,151828596571809 
845	 0,151760550635813 
846	 0,151556204591588 
847	 0,152001933170766 
848	 0,152599651089758 
849	 0,152551881786086 
850	 0,152002063538415 
851	 0,151240442394293 
852	 0,15102284077655 
853	 0,151091407178689 
854	 0,151296342205291 
855	 0,151597696224215 
856	 0,151933495782188 
857	 0,152242872766397 
858	 0,151943278782809 
859	 0,151255267758914 
860	 0,151290774517984 
861	 0,151639000192358 
862	 0,152001531037031 
863	 0,151888222979531 
864	 0,151649478259741 
865	 0,151807914849888 
866	 0,151825154745899 
867	 0,151682994980192 
868	 0,151620477359523 
869	 0,152103492906535 
870	 0,153013430695773 
871	 0,152150073513288 
872	 0,151037458021088 
873	 0,151679224745068 
874	 0,151902943974412 
875	 0,15160008411767 
876	 0,151844149399183 
877	 0,152251773219553 
878	 0,152547057569325 
879	 0,152064622598745 
880	 0,151646049849537 
881	 0,152197667561333 
882	 0,152582509108514 
883	 0,152610881949389 
884	 0,152393819262486 
885	 0,152292663325157 
886	 0,152452885728931 
887	 0,152789125777537 
888	 0,152905074374845 
889	 0,152493236251297 
890	 0,1524590080328 
891	 0,152571175402106 
892	 0,151881503102923 
893	 0,151771344699368 
894	 0,152449357759393 
895	 0,152739949505389 
896	 0,152638775557377 
897	 0,152270537702863 
898	 0,152545645744273 
899	 0,15317499073837 
900	 0,153394673426965 
901	 0,153367106924485 
902	 0,153106390740962 
903	 0,15251584012119 
904	 0,152145961994066 
905	 0,152330510627369 
906	 0,152723117790752 
907	 0,153162376587578 
908	 0,153494459809344 
909	 0,153467261277137 
910	 0,153159813139139 
911	 0,153022884656501 
912	 0,152918635910501 
913	 0,15282925631276 
914	 0,152949020670447 
915	 0,153205926262284 
916	 0,153475075169745 
917	 0,153325530940362 
918	 0,152776766057751 
919	 0,151997296880026 
920	 0,151926989409691 
921	 0,152699388260442 
922	 0,153133365643346 
923	 0,153204107923966 
924	 0,153013545517112 
925	 0,153316450926655 
926	 0,154004718473803 
927	 0,154735508815026 
928	 0,153653081824084 
929	 0,151486109720968 
930	 0,153000123800025 
931	 0,154167544388101 
932	 0,153006504461792 
933	 0,15362384844909 
934	 0,154489117312091 
935	 0,153207376943545 
936	 0,153305931362018 
937	 0,154418808888496 
938	 0,153096587539897 
939	 0,152687779722128 
940	 0,153947534756424 
941	 0,153795916164077 
942	 0,153596359189341 
943	 0,154528228468286 
944	 0,154244584277044 
945	 0,153456130210554 
946	 0,154183862107458 
947	 0,154436419732908 
948	 0,153782990437659 
949	 0,152810805580178 
950	 0,152021887398877 
951	 0,151777502100632 
952	 0,152016710211271 
953	 0,153036804945492 
954	 0,1550270856945 
955	 0,154334953014278 
956	 0,151937625110822 
957	 0,152296379071453 
958	 0,153241415181215 
959	 0,154002951680965 
960	 0,154413283797244 
961	 0,154668980314209 
962	 0,154804537663992 
963	 0,153576062231046 
964	 0,152250739787271 
965	 0,152942332587553 
966	 0,154767141472687 
967	 0,156322683585142 
968	 0,154014921170068 
969	 0,152601109390205 
970	 0,153753545922597 
971	 0,154089036659654 
972	 0,15458667660246 
973	 0,156021049171474 
974	 0,154909730540013 
975	 0,153049065053256 
976	 0,154639808220511 
977	 0,155634846893048 
978	 0,155285837070878 
979	 0,154983692920173 
980	 0,155026618228798 
981	 0,155423214976476 
982	 0,155093430590649 
983	 0,154400693523995 
984	 0,153914908014409 
985	 0,154882981210973 
986	 0,156330757767905 
987	 0,155934523132853 
988	 0,156211543789763 
989	 0,156768012526379 
990	 0,153248066655501 
991	 0,151404370675988 
992	 0,153745297368946 
993	 0,15548087694419 
994	 0,156434072186202 
995	 0,156773163249529 
996	 0,155573004426575 
997	 0,153796345299644 
998	 0,153615995832736 
999	 0,152404053633214 
1000	 0,150850559396271 
1001	 0,154132011094703 
1002	 0,156118318369126 
1003	 0,154566409022944 
1004	 0,156229827980244 
1005	 0,157681392804305 
1006	 0,155581225192233 
1007	 0,156309163713529 
1008	 0,158309755754682 
1009	 0,156961279218081 
1010	 0,156634010677371 
1011	 0,157292195616718 
1012	 0,154740197051472 
1013	 0,153642820371674 
1014	 0,155648105082666 
1015	 0,157950695533952 
1016	 0,158024173841497 
1017	 0,154473531481916 
1018	 0,153523777157128 
1019	 0,153710075468017 
1020	 0,151479709808209 
1021	 0,150879611560891 
1022	 0,152697239779848 
1023	 0,156752187709193 
1024	 0,158262165681647 
1025	 0,156510609516781 
1026	 0,157313559911828 
1027	 0,156950820639496 
1028	 0,153893142995792 
1029	 0,155358776665302 
1030	 0,158321198591772 
1031	 0,158465704221829 
1032	 0,158906381224589 
1033	 0,158941566832178 
1034	 0,156098207772834 
1035	 0,155089217490695 
1036	 0,156483417127299 
1037	 0,157147492373884 
1038	 0,156479705798653 
1039	 0,155599569182684 
1040	 0,162764131533791 
1041	 0,166315329160636 
1042	 0,15732485948252 
1043	 0,147833581233229 
1044	 0,145920924767934 
1045	 0,158685692372425 
1046	 0,164904233009485 
1047	 0,162273969934618 
1048	 0,156757369932435 
1049	 0,160355116867723 
1050	 0,170668100222094 
1051	 0,161783742357028 
1052	 0,155308104078228 
1053	 0,160525028427617 
1054	 0,162319088342847 
1055	 0,15767470425823 
1056	 0,147225330491577 
1057	 0,153266540230224 
1058	 0,163501858009981 
1059	 0,156830536385313 
1060	 0,150231205989188 
1061	 0,148444870184058 
1062	 0,154355032387279 
1063	 0,159681768117149 
1064	 0,160598327405248 
1065	 0,154043615192855 
1066	 0,145266165595173 
1067	 0,138962921653132 
1068	 0,142768036516839 
1069	 0,151158529980382 
1070	 0,159304853701065 
1071	 0,167979905443102 
1072	 0,171897794483104 
1073	 0,166091559211081 
1074	 0,162911544616018 
1075	 0,164192199387723 
