Wavelength	SCO-GRA00696.asd
325	 0,20034821288163 
326	 0,118478060788553 
327	 1,38231153206195E-02 
328	-3,23692221509704E-02 
329	 3,67920086302978E-02 
330	 0,133029382920941 
331	 0,227385943791772 
332	 0,279083033331235 
333	 0,260074514697979 
334	 8,25721606406524E-02 
335	 1,04215151970504E-02 
336	 0,11401429383262 
337	 0,180791193599472 
338	 0,178071908916895 
339	 0,102460805597546 
340	 6,77039647776149E-02 
341	 8,42248922608591E-02 
342	 0,159230374047713 
343	 0,131353679480803 
344	-2,71082730037888E-03 
345	 3,03929021872434E-02 
346	 9,24305530184015E-02 
347	 5,34079250469425E-02 
348	 5,76622211854795E-02 
349	 0,100185133121807 
350	 9,14611069010301E-02 
351	 8,15709598736446E-02 
352	 8,87734686263799E-02 
353	 0,116862753367565 
354	 0,135609858404141 
355	 0,112488651200124 
356	 9,71056074169331E-02 
357	 9,92796024771112E-02 
358	 0,105365671162651 
359	 0,125280975523977 
360	 0,155920693862202 
361	 0,138823886111231 
362	 0,104950848390614 
363	 0,102138752100014 
364	 9,73837821265056E-02 
365	 0,092086482445264 
366	 0,11774312571559 
367	 0,136732541008951 
368	 0,128186650122229 
369	 0,126064198189252 
370	 0,129083369017834 
371	 0,126861547080958 
372	 0,12543094231469 
373	 0,125867270575521 
374	 0,125244740485485 
375	 0,12593963996205 
376	 0,129376636090094 
377	 0,129096508639314 
378	 0,127162604725364 
379	 0,129763649783443 
380	 0,138370116775542 
381	 0,147594488698612 
382	 0,131135040081629 
383	 0,114921054743786 
384	 0,124405943301723 
385	 0,136324353271754 
386	 0,143330553893831 
387	 0,14006628915956 
388	 0,142425260992056 
389	 0,15253960609174 
390	 0,146912222090544 
391	 0,131469126671489 
392	 0,11593033157746 
393	 0,120106619746445 
394	 0,139231804771861 
395	 0,146528741100312 
396	 0,14869097795686 
397	 0,14840469369334 
398	 0,139229889873498 
399	 0,130944188570503 
400	 0,138306938803598 
401	 0,142672685172641 
402	 0,142123000114641 
403	 0,1505401779549 
404	 0,150617079678628 
405	 0,132864751674657 
406	 0,127215080136251 
407	 0,129541557840849 
408	 0,120048588402874 
409	 0,121385571909683 
410	 0,134740629775307 
411	 0,136700939869501 
412	 0,131680903319992 
413	 0,12561850315367 
414	 0,132882708777317 
415	 0,144941364867225 
416	 0,133655214888178 
417	 0,125624073509923 
418	 0,130717378407854 
419	 0,136111758881148 
420	 0,141074681645122 
421	 0,146503962935861 
422	 0,144377268000215 
423	 0,136427800933584 
424	 0,133043975357561 
425	 0,133359537575653 
426	 0,136582343959144 
427	 0,140691701262847 
428	 0,143598675630255 
429	 0,142403544671441 
430	 0,140606112745725 
431	 0,139347760892762 
432	 0,138141612793394 
433	 0,137068462473195 
434	 0,136350184205383 
435	 0,138777002142599 
436	 0,142133647782191 
437	 0,139878311581992 
438	 0,136902044555991 
439	 0,135591974376199 
440	 0,137548781139244 
441	 0,139705375206916 
442	 0,138104085406804 
443	 0,137465695068673 
444	 0,138406555267506 
445	 0,139203294453359 
446	 0,138728279997741 
447	 0,136767614107343 
448	 0,138268206662452 
449	 0,140766812189861 
450	 0,138449874592058 
451	 0,136399782885127 
452	 0,1364414030916 
453	 0,138614430728353 
454	 0,142094467918991 
455	 0,145857420083554 
456	 0,145942452253797 
457	 0,143380843883868 
458	 0,143069998027066 
459	 0,14245164959654 
460	 0,140951459910869 
461	 0,141072780647586 
462	 0,142748146449137 
463	 0,145586920593096 
464	 0,145179942899449 
465	 0,141622305896014 
466	 0,138739939606327 
467	 0,1394463655397 
468	 0,144807388046007 
469	 0,145835723544396 
470	 0,143840715712408 
471	 0,144158669221838 
472	 0,144973101152796 
473	 0,145568861651878 
474	 0,144834428974977 
475	 0,143724376557464 
476	 0,143179207244646 
477	 0,140978858884298 
478	 0,139428230279213 
479	 0,146578776191507 
480	 0,150534121962546 
481	 0,14675672023686 
482	 0,146182582669561 
483	 0,147597702813519 
484	 0,147466163185687 
485	 0,146048493186491 
486	 0,14421820830058 
487	 0,145300838855037 
488	 0,146307102882031 
489	 0,145099657158634 
490	 0,144599300582218 
491	 0,144926570077333 
492	 0,145365805627317 
493	 0,145221395713119 
494	 0,144555173657197 
495	 0,145222800551313 
496	 0,14660078216835 
497	 0,147818671375871 
498	 0,148296206037965 
499	 0,147781836549087 
500	 0,145538982727353 
501	 0,145645254722246 
502	 0,149551080978371 
503	 0,148689483563689 
504	 0,145768840442213 
505	 0,147448739673326 
506	 0,14913883185892 
507	 0,149725921149219 
508	 0,150624991017663 
509	 0,151001980521114 
510	 0,150154214897209 
511	 0,149562389947832 
512	 0,149715514040768 
513	 0,151162338976207 
514	 0,151940867871929 
515	 0,15147321257294 
516	 0,152346744189914 
517	 0,153566549989983 
518	 0,153420501769622 
519	 0,153627278281145 
520	 0,154389580907717 
521	 0,154926693997147 
522	 0,154757797278826 
523	 0,1537034479111 
524	 0,153643330570932 
525	 0,154242748108047 
526	 0,154013586753769 
527	 0,153941472285151 
528	 0,154207457243617 
529	 0,154051406317681 
530	 0,153685680402058 
531	 0,153414415146147 
532	 0,153393259429267 
533	 0,153582322432761 
534	 0,153646977860846 
535	 0,154070858493563 
536	 0,15491343514529 
537	 0,154232816955627 
538	 0,152946058324259 
539	 0,153146707802157 
540	 0,153787471368348 
541	 0,154328873210803 
542	 0,153709075445163 
543	 0,153362666313051 
544	 0,154662493946366 
545	 0,155754857536578 
546	 0,156126554820755 
547	 0,155449593275687 
548	 0,155005642019124 
549	 0,15539854752275 
550	 0,155806006706826 
551	 0,156036714872548 
552	 0,155953837437443 
553	 0,155801068905927 
554	 0,15569287287526 
555	 0,155746482453561 
556	 0,155770681785544 
557	 0,155587132810564 
558	 0,154988583179213 
559	 0,154352829799553 
560	 0,154704766477499 
561	 0,155062530490892 
562	 0,154990985748427 
563	 0,154409483603981 
564	 0,15419865015584 
565	 0,155515387822807 
566	 0,155450016008212 
567	 0,154112069687617 
568	 0,154660233786514 
569	 0,155581846405845 
570	 0,155852730858982 
571	 0,156495737556138 
572	 0,157288474648771 
573	 0,157404058160081 
574	 0,157813676463672 
575	 0,158800033995313 
576	 0,159903225227739 
577	 0,160881027322529 
578	 0,161507126211129 
579	 0,161913766497559 
580	 0,162298749731568 
581	 0,163104008409233 
582	 0,164035682531424 
583	 0,164915963426952 
584	 0,165808274039564 
585	 0,166661714780034 
586	 0,167366436068642 
587	 0,168267085937058 
588	 0,169191597725855 
589	 0,168772951246363 
590	 0,168708188439199 
591	 0,170520137823964 
592	 0,171744264348597 
593	 0,172001749013245 
594	 0,17170918457454 
595	 0,171275290597331 
596	 0,171078126685306 
597	 0,171871765992293 
598	 0,172764326129383 
599	 0,172326802091127 
600	 0,172155594308866 
601	 0,172421637026249 
602	 0,172009232403849 
603	 0,171335214696883 
604	 0,170742906750185 
605	 0,169886264276476 
606	 0,169197979229165 
607	 0,169950363559524 
608	 0,170228207020511 
609	 0,169428926649613 
610	 0,168742233667451 
611	 0,168519434024003 
612	 0,169044105870145 
613	 0,168959599471511 
614	 0,168190033572812 
615	 0,167777823333753 
616	 0,167242422163036 
617	 0,166372927205686 
618	 0,166002191281487 
619	 0,166121508949631 
620	 0,166513388238681 
621	 0,1666596490835 
622	 0,166432114907064 
623	 0,166251390235733 
624	 0,166322617715317 
625	 0,16680160450168 
626	 0,167006902908165 
627	 0,166878963329798 
628	 0,166689364360178 
629	 0,166633972517763 
630	 0,16687145557656 
631	 0,167558025298657 
632	 0,168447599646587 
633	 0,169155184728984 
634	 0,169466767985733 
635	 0,169455143021023 
636	 0,169688724991761 
637	 0,170188116902502 
638	 0,170934384862201 
639	 0,171600520205053 
640	 0,172289305569645 
641	 0,173586614444755 
642	 0,174209361858157 
643	 0,17386064674288 
644	 0,17425133318275 
645	 0,17493349737643 
646	 0,17511881973146 
647	 0,175481427565022 
648	 0,175849262177573 
649	 0,175089900731357 
650	 0,174308426643603 
651	 0,174156967756335 
652	 0,173327390591845 
653	 0,172015075440233 
654	 0,170928556172343 
655	 0,170370505621486 
656	 0,170201473528935 
657	 0,169164026930429 
658	 0,167646437531199 
659	 0,166151082960391 
660	 0,164877835802893 
661	 0,163693461366178 
662	 0,16194216220716 
663	 0,160505057690286 
664	 0,159796744994361 
665	 0,159313566510741 
666	 0,158753344712763 
667	 0,157745294383788 
668	 0,157045596210982 
669	 0,156749394963842 
670	 0,156303697859336 
671	 0,155806116055163 
672	 0,155388818266308 
673	 0,155572223299043 
674	 0,156061908317805 
675	 0,155960252056565 
676	 0,155805286989018 
677	 0,155815768628016 
678	 0,156092520049452 
679	 0,156424762965239 
680	 0,15655433577407 
681	 0,156915018898608 
682	 0,15761137488108 
683	 0,158621761542782 
684	 0,159694292787141 
685	 0,16070451071591 
686	 0,161997353043309 
687	 0,163549151605441 
688	 0,165196618506654 
689	 0,167325953073044 
690	 0,170095972599834 
691	 0,173619606823153 
692	 0,177386048836514 
693	 0,180983233348458 
694	 0,185445251728046 
695	 0,190642672310189 
696	 0,19565162184096 
697	 0,201394224959416 
698	 0,208111174550341 
699	 0,214936292325587 
700	 0,22182802875294 
701	 0,228836489382864 
702	 0,235844215413148 
703	 0,242673384286635 
704	 0,248881431987122 
705	 0,255119212563751 
706	 0,261704695086431 
707	 0,267482203458739 
708	 0,272666463552404 
709	 0,277973904587095 
710	 0,283083765748658 
711	 0,287906980721137 
712	 0,292484076409217 
713	 0,296775122582277 
714	 0,300727492605571 
715	 0,304372739608709 
716	 0,307674691177481 
717	 0,310494256181535 
718	 0,313157370986521 
719	 0,315790629242039 
720	 0,318146159116931 
721	 0,320370812114147 
722	 0,322675693802562 
723	 0,324650554841068 
724	 0,326322972265682 
725	 0,328127404801322 
726	 0,3298175117818 
727	 0,331239342032874 
728	 0,332490106481506 
729	 0,333511641951146 
730	 0,334131326910099 
731	 0,335106547394581 
732	 0,336493017432451 
733	 0,337348741251389 
734	 0,338238594384509 
735	 0,339610645281367 
736	 0,340332252046367 
737	 0,340531990916954 
738	 0,340987656080223 
739	 0,341680629098491 
740	 0,342564779240896 
741	 0,343239856782632 
742	 0,343745876277027 
743	 0,344178194462642 
744	 0,344695352848317 
745	 0,345361440336641 
746	 0,346325767633673 
747	 0,346803141982081 
748	 0,346512496157926 
749	 0,346699444747119 
750	 0,347384881014725 
751	 0,348362347880779 
752	 0,349072795778966 
753	 0,349378404779987 
754	 0,349513593661349 
755	 0,349708574964037 
756	 0,350137209844763 
757	 0,350722120773265 
758	 0,351334871905366 
759	 0,3518149000139 
760	 0,351736977741108 
761	 0,351280003443829 
762	 0,351944930696039 
763	 0,352793244205362 
764	 0,352908754354719 
765	 0,353335923858608 
766	 0,353955379405628 
767	 0,353902669444519 
768	 0,354147650526467 
769	 0,35490407074855 
770	 0,355050990077356 
771	 0,354874054834975 
772	 0,354830275448771 
773	 0,355350121811014 
774	 0,356206622376083 
775	 0,356382820960519 
776	 0,356468705015035 
777	 0,356771763814513 
778	 0,357170719846413 
779	 0,357632819947475 
780	 0,358129193928871 
781	 0,358460310962239 
782	 0,358626933593377 
783	 0,358871608368193 
784	 0,358999106527556 
785	 0,358984934255156 
786	 0,35978546976675 
787	 0,36074917284935 
788	 0,360463361257852 
789	 0,360568857458512 
790	 0,361221382138341 
791	 0,360857547703137 
792	 0,360553457244779 
793	 0,361162906024169 
794	 0,361891159350298 
795	 0,362438596083545 
796	 0,362474460078016 
797	 0,362430123970378 
798	 0,362550048397373 
799	 0,363197418494575 
800	 0,363705095715532 
801	 0,363485070722126 
802	 0,363502255507864 
803	 0,363826001241638 
804	 0,364141274526415 
805	 0,364465737912793 
806	 0,364783524390883 
807	 0,365066888557402 
808	 0,365415038773321 
809	 0,365916508775866 
810	 0,366120839968976 
811	 0,366181317625517 
812	 0,366789928450973 
813	 0,367433845640235 
814	 0,367850303906489 
815	 0,367931951814131 
816	 0,367832945128839 
817	 0,367770656065747 
818	 0,368485460185296 
819	 0,36966553380276 
820	 0,369885587278592 
821	 0,369987063004477 
822	 0,370337969013885 
823	 0,370645154011329 
824	 0,37082959962916 
825	 0,370827919367539 
826	 0,371105376408239 
827	 0,371630193444668 
828	 0,371935581690821 
829	 0,372107352883996 
830	 0,372238410853653 
831	 0,372702260486354 
832	 0,373150443613457 
833	 0,373065332009259 
834	 0,37342814900503 
835	 0,374062762165863 
836	 0,373535670211358 
837	 0,37316236919596 
838	 0,373626106504023 
839	 0,374251669627037 
840	 0,374749220604857 
841	 0,374832985645599 
842	 0,374983492393884 
843	 0,375281931060907 
844	 0,375573869585632 
845	 0,375677786746351 
846	 0,375620394921966 
847	 0,376352311528456 
848	 0,377262764448902 
849	 0,377367836586911 
850	 0,377345192856594 
851	 0,377306693612299 
852	 0,377010170992316 
853	 0,376813324218763 
854	 0,377022173916334 
855	 0,378288595115838 
856	 0,37939261574855 
857	 0,378641346242135 
858	 0,377946874106608 
859	 0,377919382735178 
860	 0,378897707273885 
861	 0,379484281944334 
862	 0,379067605707322 
863	 0,379019807539139 
864	 0,379247127702323 
865	 0,379436365199259 
866	 0,380127047522957 
867	 0,381029113675126 
868	 0,380915624313652 
869	 0,380923563067096 
870	 0,381497837208561 
871	 0,38177941330939 
872	 0,381922686643006 
873	 0,382188093440853 
874	 0,381860145695005 
875	 0,3813156572671 
876	 0,381994892214798 
877	 0,382992462708 
878	 0,383807803011692 
879	 0,383998487582968 
880	 0,384201244025298 
881	 0,385066114182341 
882	 0,384871047797698 
883	 0,384102709800513 
884	 0,384924896036388 
885	 0,385818183857257 
886	 0,386269697934908 
887	 0,386643746417123 
888	 0,386901209611745 
889	 0,387022930017099 
890	 0,387409946108696 
891	 0,387800296408911 
892	 0,387400905915551 
893	 0,387546612302464 
894	 0,38837460545821 
895	 0,388460612363496 
896	 0,388090843632751 
897	 0,387671823739061 
898	 0,388499460121388 
899	 0,38961455083663 
900	 0,388922240686769 
901	 0,389143525940218 
902	 0,390388598885928 
903	 0,390015040579885 
904	 0,38953776999208 
905	 0,389888947636866 
906	 0,390327624488537 
907	 0,391001004616253 
908	 0,392219346726977 
909	 0,391982686413271 
910	 0,390888809367571 
911	 0,392524990531349 
912	 0,393692562320106 
913	 0,393106073574605 
914	 0,392872954802835 
915	 0,392870951667125 
916	 0,392791804313673 
917	 0,393271011435838 
918	 0,393734043340647 
919	 0,392231077945658 
920	 0,392174032710344 
921	 0,39410151553278 
922	 0,39444442490634 
923	 0,394040802907819 
924	 0,393811390791532 
925	 0,394367030195618 
926	 0,395331702713547 
927	 0,395856706669627 
928	 0,395689106341324 
929	 0,394992425246132 
930	 0,394687043396109 
931	 0,394613162145792 
932	 0,394605707263466 
933	 0,394132273317889 
934	 0,393718410915838 
935	 0,394086636008124 
936	 0,394945621669559 
937	 0,395548361793908 
938	 0,393937509528592 
939	 0,392932677612872 
940	 0,39351947749807 
941	 0,394588041144437 
942	 0,395160526764366 
943	 0,394475955717162 
944	 0,393479494630674 
945	 0,392619617007169 
946	 0,392360765044751 
947	 0,39240016386362 
948	 0,392413378697053 
949	 0,391709498855373 
950	 0,390530565954018 
951	 0,389230992980263 
952	 0,388877307114121 
953	 0,389355989860638 
954	 0,390259020633479 
955	 0,389225016361151 
956	 0,386993713473129 
957	 0,386709638975668 
958	 0,387127226253737 
959	 0,387723637022456 
960	 0,388090578164482 
961	 0,387689949810453 
962	 0,386381973158279 
963	 0,38621369241694 
964	 0,387072157515619 
965	 0,388261358780969 
966	 0,390136453409257 
967	 0,391261080513756 
968	 0,386853784066282 
969	 0,384775888287366 
970	 0,387641325997095 
971	 0,389259159907132 
972	 0,389522473549377 
973	 0,388790168817606 
974	 0,38821221887216 
975	 0,388080453938206 
976	 0,388434141940282 
977	 0,389277959341412 
978	 0,390145696802135 
979	 0,389395636968724 
980	 0,389668059460219 
981	 0,391708671314043 
982	 0,391627864231907 
983	 0,390687329344301 
984	 0,390535723884774 
985	 0,391339920026636 
986	 0,39208511826226 
987	 0,390684121505015 
988	 0,390251250351936 
989	 0,391222636191976 
990	 0,391495153737429 
991	 0,392462175907599 
992	 0,394285442801348 
993	 0,393573684723934 
994	 0,392387205831919 
995	 0,393164429698138 
996	 0,395684535416696 
997	 0,39807864304127 
998	 0,396814527298014 
999	 0,395180478102322 
1000	 0,394468063912184 
1001	 0,395253804695232 
1002	 0,397010697437031 
1003	 0,39890243126006 
1004	 0,39824996737548 
1005	 0,39728996915143 
1006	 0,398396517950012 
1007	 0,400854165810425 
1008	 0,402571578821312 
1009	 0,400140752823129 
1010	 0,400316788917146 
1011	 0,403223462616927 
1012	 0,403004439888531 
1013	 0,40259115798583 
1014	 0,403222132326251 
1015	 0,404657827336794 
1016	 0,40525239787177 
1017	 0,404076905029451 
1018	 0,405810454375621 
1019	 0,408310206674221 
1020	 0,407478748090761 
1021	 0,407148195169778 
1022	 0,40755728902054 
1023	 0,406742817797672 
1024	 0,406272678870463 
1025	 0,40696776298547 
1026	 0,410007706245759 
1027	 0,412039305649469 
1028	 0,410888797436845 
1029	 0,407761040879041 
1030	 0,406008450019812 
1031	 0,408862678831016 
1032	 0,408417274308674 
1033	 0,405518576587471 
1034	 0,404905581683093 
1035	 0,406787677808317 
1036	 0,410713285885381 
1037	 0,415496980471162 
1038	 0,413288088923868 
1039	 0,404586736176687 
1040	 0,411203963240355 
1041	 0,42005111966043 
1042	 0,419205053431622 
1043	 0,412657440414098 
1044	 0,409212131489809 
1045	 0,418965539678135 
1046	 0,418911928168276 
1047	 0,412044667425269 
1048	 0,417492572392881 
1049	 0,42049198974404 
1050	 0,417968381710225 
1051	 0,416071498497978 
1052	 0,415304491489275 
1053	 0,416248123762758 
1054	 0,420541682129201 
1055	 0,418233540925062 
1056	 0,403710396817385 
1057	 0,405104905334941 
1058	 0,414525164599918 
1059	 0,415041245008898 
1060	 0,411228952959863 
1061	 0,408174421301597 
1062	 0,41645060211813 
1063	 0,417847801365931 
1064	 0,41119405452691 
1065	 0,412532168027367 
1066	 0,414281787113341 
1067	 0,413218504793071 
1068	 0,412159917601587 
1069	 0,407092265604906 
1070	 0,397881168204767 
1071	 0,406025077892119 
1072	 0,419468949398054 
1073	 0,421205511365626 
1074	 0,409023539922674 
1075	 0,399766294368958 
