Wavelength	SCO-GRA00285.asd
325	 9,97169366252555E-02 
326	 6,11292285628724E-03 
327	-0,1054963833666 
328	-0,111808887807826 
329	-5,33761272134509E-02 
330	-5,49279571514786E-03 
331	 0,022364979866329 
332	 0,120750606204559 
333	 0,20838791367955 
334	 8,45301178264104E-02 
335	-1,50669417883151E-02 
336	 2,76175116267954E-03 
337	 0,111448698968494 
338	 0,156541335469963 
339	 2,84450832890333E-02 
340	 1,57077377976972E-02 
341	 0,089428661716347 
342	 9,05547079309268E-02 
343	 0,060005781918764 
344	 2,01557006231582E-02 
345	 0,032904496254392 
346	 4,50263661052452E-02 
347	 8,23212137081122E-03 
348	 1,24073969803975E-02 
349	 4,59122491953021E-02 
350	 2,70293053834691E-02 
351	 1,57870561041892E-02 
352	 2,84071321641588E-02 
353	 3,98489547481801E-02 
354	 3,44631970195251E-02 
355	-2,85434563781525E-03 
356	-1,53739435230988E-02 
357	-1,13099512757509E-03 
358	 4,15849701447572E-03 
359	 1,21516039935361E-02 
360	 2,37961943017304E-02 
361	 7,6108855036717E-03 
362	-1,09727692396609E-02 
363	 4,15349941824577E-03 
364	 2,65000825867242E-02 
365	 4,38961852638673E-02 
366	 4,21778999233279E-02 
367	 3,77492517647439E-02 
368	 0,04027945800262 
369	 3,89931921705795E-02 
370	 3,51073423186666E-02 
371	 3,29272378313308E-02 
372	 2,44971245503007E-02 
373	 1,65293329899799E-02 
374	 4,44145630599718E-02 
375	 6,71015442071667E-02 
376	 5,65149314004975E-02 
377	 4,03500828899053E-02 
378	 3,11023376030793E-02 
379	 4,44656353308161E-02 
380	 4,50248677364792E-02 
381	 2,61854696887895E-02 
382	 1,48211697989444E-02 
383	 1,72024598967271E-02 
384	 3,62457939324737E-02 
385	 3,88719799066089E-02 
386	 2,68606894757755E-02 
387	 1,57230169493698E-02 
388	 0,025277305087232 
389	 5,35108252808579E-02 
390	 4,32825403537463E-02 
391	 2,46764170986093E-02 
392	 3,86795924571506E-02 
393	 3,69191194041424E-02 
394	 2,13326384947438E-02 
395	 2,79868502224872E-02 
396	 4,34847387606441E-02 
397	 5,69208429810447E-02 
398	 0,038830363263565 
399	 1,54248061575685E-02 
400	 2,92627044214091E-02 
401	 4,24686997223656E-02 
402	 4,61152830436161E-02 
403	 4,70319805867382E-02 
404	 4,19335631308886E-02 
405	 2,97051264408003E-02 
406	 2,35360730527631E-02 
407	 2,35046376317647E-02 
408	 2,40767616232151E-02 
409	 3,09863947656787E-02 
410	 4,07702523647789E-02 
411	 3,23981141592965E-02 
412	 2,50073402925187E-02 
413	 3,61513910961506E-02 
414	 3,97839755384066E-02 
415	 3,49923248591982E-02 
416	 3,05246049869494E-02 
417	 3,17940598063846E-02 
418	 3,88384404015304E-02 
419	 3,53594107883744E-02 
420	 2,94169407962905E-02 
421	 3,25579435487186E-02 
422	 3,44228084206935E-02 
423	 3,32231469568034E-02 
424	 3,09592384478683E-02 
425	 2,94093169400965E-02 
426	 2,99435972276784E-02 
427	 3,40185864159123E-02 
428	 3,76064805848695E-02 
429	 3,33272550249183E-02 
430	 2,93420317163429E-02 
431	 2,81006886809976E-02 
432	 2,82016519540044E-02 
433	 2,84918428714728E-02 
434	 2,82236685150378E-02 
435	 3,19343767850889E-02 
436	 0,037134210269843 
437	 3,61075319940246E-02 
438	 3,31383430530415E-02 
439	 3,04474647067908E-02 
440	 2,98938228035717E-02 
441	 3,18738210624019E-02 
442	 3,65835955152826E-02 
443	 3,47209211410485E-02 
444	 2,80075521598419E-02 
445	 3,00307286202882E-02 
446	 3,27086650401873E-02 
447	 3,14504839878741E-02 
448	 3,27467882130272E-02 
449	 3,50091745755629E-02 
450	 3,38968032151297E-02 
451	 3,18429207198269E-02 
452	 3,01821926720827E-02 
453	 3,09045601416684E-02 
454	 3,28869654851706E-02 
455	 3,49394525142164E-02 
456	 3,68365417622475E-02 
457	 3,77025793588507E-02 
458	 3,54565987173122E-02 
459	 3,35837658296434E-02 
460	 3,32949397024787E-02 
461	 3,11865576917408E-02 
462	 3,01277119047151E-02 
463	 3,42592223947982E-02 
464	 3,49505102423693E-02 
465	 3,18688471762759E-02 
466	 3,16271377340925E-02 
467	 3,32394569078703E-02 
468	 3,57728554519207E-02 
469	 3,70173456147986E-02 
470	 3,70359600864083E-02 
471	 3,66786299333592E-02 
472	 3,67670224138479E-02 
473	 3,72985597930013E-02 
474	 3,65252180070409E-02 
475	 3,56472677198443E-02 
476	 3,58672056409562E-02 
477	 3,56111045360899E-02 
478	 3,49444812011393E-02 
479	 3,47366436234475E-02 
480	 3,55123150289792E-02 
481	 3,72000932242502E-02 
482	 3,72245219722911E-02 
483	 3,72012332702382E-02 
484	 3,99623182935734E-02 
485	 4,10240076463022E-02 
486	 3,99212068879198E-02 
487	 3,98196675698887E-02 
488	 3,94953076760267E-02 
489	 3,80784354068834E-02 
490	 3,67480167636162E-02 
491	 3,58594448648691E-02 
492	 3,56105143735693E-02 
493	 3,61965736477869E-02 
494	 3,72628372831683E-02 
495	 3,66756815428083E-02 
496	 3,59401219078654E-02 
497	 3,68897356600063E-02 
498	 3,85411037110511E-02 
499	 3,95927287296182E-02 
500	 3,65357695868638E-02 
501	 3,49129019617404E-02 
502	 3,73911669377998E-02 
503	 3,77051208075284E-02 
504	 3,70937243024449E-02 
505	 3,93116420421536E-02 
506	 3,98657900970003E-02 
507	 3,86829880967525E-02 
508	 4,17588254456437E-02 
509	 4,39285296135398E-02 
510	 0,040714690945814 
511	 3,99875696461584E-02 
512	 4,15480569875998E-02 
513	 4,08567890410911E-02 
514	 0,039774591095478 
515	 3,94265016936659E-02 
516	 4,20565535596842E-02 
517	 4,45321789709955E-02 
518	 4,23087292786676E-02 
519	 4,14648041998782E-02 
520	 4,26705263164913E-02 
521	 4,20666306198979E-02 
522	 4,15890887648417E-02 
523	 4,25428176545432E-02 
524	 4,28911625225934E-02 
525	 4,26071127902989E-02 
526	 4,23146722632746E-02 
527	 4,22314049794698E-02 
528	 4,24652367606075E-02 
529	 4,30179099025712E-02 
530	 4,31408404832754E-02 
531	 4,20336554107513E-02 
532	 4,23724574249286E-02 
533	 4,39356135260031E-02 
534	 4,40546479710338E-02 
535	 4,38303730402165E-02 
536	 4,39792990008035E-02 
537	 4,49230178639306E-02 
538	 4,58722513228637E-02 
539	 4,52932721712326E-02 
540	 4,44414795055143E-02 
541	 4,39722654657245E-02 
542	 4,47995853617234E-02 
543	 4,58493233957866E-02 
544	 4,60366311192489E-02 
545	 4,59067644793904E-02 
546	 4,58140382415028E-02 
547	 4,65263932293366E-02 
548	 4,67724142491332E-02 
549	 4,61140933741803E-02 
550	 0,046179332363973 
551	 4,67358997905282E-02 
552	 4,71667740548316E-02 
553	 4,69290816041713E-02 
554	 4,63159159131621E-02 
555	 4,72837619858276E-02 
556	 4,80858491439215E-02 
557	 4,73639539343946E-02 
558	 4,76029400631377E-02 
559	 4,84494469693015E-02 
560	 4,77517383588654E-02 
561	 4,77337434563932E-02 
562	 4,89238056567117E-02 
563	 4,88077842208846E-02 
564	 4,81573427114606E-02 
565	 4,82838839214863E-02 
566	 4,81311459688501E-02 
567	 4,78032292224041E-02 
568	 4,85970654554004E-02 
569	 4,92300074360653E-02 
570	 4,88670965870269E-02 
571	 4,86580741301525E-02 
572	 4,89710832448451E-02 
573	 5,02981585073744E-02 
574	 5,10019189841883E-02 
575	 5,07112028492093E-02 
576	 5,09419774158299E-02 
577	 0,051752486333023 
578	 5,30356622796638E-02 
579	 5,29588992241624E-02 
580	 5,18348528169338E-02 
581	 5,19379530201686E-02 
582	 0,052683767263315 
583	 5,36219531381896E-02 
584	 5,37735878156282E-02 
585	 5,37243990250893E-02 
586	 5,48060357020791E-02 
587	 0,055425176227105 
588	 5,51896013470913E-02 
589	 5,46076919482219E-02 
590	 5,44008782508752E-02 
591	 5,51597478152226E-02 
592	 5,55550087154426E-02 
593	 5,55517245933009E-02 
594	 5,59091156913716E-02 
595	 5,59259956806999E-02 
596	 0,05548917907052 
597	 5,61490123694694E-02 
598	 5,69181281506642E-02 
599	 5,60808860781334E-02 
600	 5,58578641439549E-02 
601	 5,64561302871028E-02 
602	 5,61022036835951E-02 
603	 0,055713644895202 
604	 5,59529113989914E-02 
605	 5,54094155260995E-02 
606	 5,44517131615196E-02 
607	 5,44621227701405E-02 
608	 5,49675067234976E-02 
609	 5,56700520701921E-02 
610	 5,58988971553397E-02 
611	 0,055753822526185 
612	 5,54499591112682E-02 
613	 5,54135428730506E-02 
614	 5,56524174044239E-02 
615	 5,58135300847235E-02 
616	 5,56883806334848E-02 
617	 5,51793920814883E-02 
618	 5,46865765730271E-02 
619	 5,44260075940047E-02 
620	 0,054692404596222 
621	 5,48978086984939E-02 
622	 5,48141019845591E-02 
623	 5,44291015105064E-02 
624	 5,41976562651514E-02 
625	 0,054568462790961 
626	 5,50770992421165E-02 
627	 0,055435307438222 
628	 5,51753460708616E-02 
629	 5,47218190761309E-02 
630	 0,054485088872942 
631	 5,55515205080381E-02 
632	 5,70580539730841E-02 
633	 5,74568451322159E-02 
634	 5,73901715279282E-02 
635	 5,70257439500321E-02 
636	 5,62135178431508E-02 
637	 0,055894878244756 
638	 5,68131177201355E-02 
639	 5,78958864472942E-02 
640	 5,88181614297757E-02 
641	 5,95651491337285E-02 
642	 5,92022547950042E-02 
643	 5,77735711579588E-02 
644	 5,79014178767351E-02 
645	 5,89132141884472E-02 
646	 5,96107703872353E-02 
647	 5,94716401208443E-02 
648	 5,88157278451662E-02 
649	 5,94198400519111E-02 
650	 5,99091767670487E-02 
651	 5,94210928798334E-02 
652	 5,90859378397146E-02 
653	 5,88946239833119E-02 
654	 5,84900060625301E-02 
655	 5,79418888151786E-02 
656	 5,73343167454943E-02 
657	 5,69599147839196E-02 
658	 5,66721868847331E-02 
659	 5,62966795846256E-02 
660	 5,57936680517945E-02 
661	 5,52208235918601E-02 
662	 5,47771003239838E-02 
663	 5,43402876748902E-02 
664	 0,053867843729144 
665	 5,34808585398035E-02 
666	 5,32138174316187E-02 
667	 5,31072399978745E-02 
668	 5,28241942278386E-02 
669	 5,24060231517995E-02 
670	 5,24715529991678E-02 
671	 5,24318244030926E-02 
672	 5,18839575425287E-02 
673	 5,20040983541974E-02 
674	 5,26335194269191E-02 
675	 5,29443470957946E-02 
676	 5,30661669155927E-02 
677	 0,053073512973548 
678	 5,32882972116843E-02 
679	 5,35883655928645E-02 
680	 5,37919860997998E-02 
681	 5,36688576899968E-02 
682	 5,34534190850827E-02 
683	 5,40100983701364E-02 
684	 5,48110883645634E-02 
685	 5,55172720348976E-02 
686	 5,61622731504973E-02 
687	 5,67152721150208E-02 
688	 5,70692304354549E-02 
689	 5,81212214725311E-02 
690	 5,98602394531388E-02 
691	 6,09025090214578E-02 
692	 0,061960896880568 
693	 6,37043089429703E-02 
694	 0,065600842156193 
695	 6,76023498636679E-02 
696	 6,97645617427391E-02 
697	 7,24292691507795E-02 
698	 7,56821739989151E-02 
699	 7,91457681069638E-02 
700	 8,25181985299047E-02 
701	 8,54728861321008E-02 
702	 8,85782986107659E-02 
703	 9,19917507055643E-02 
704	 9,56944890360883E-02 
705	 9,94765928352411E-02 
706	 0,103153214939914 
707	 0,106422821008105 
708	 0,109483329162237 
709	 0,112800297409552 
710	 0,115957836714432 
711	 0,118893615244839 
712	 0,121995032288778 
713	 0,124849565328997 
714	 0,127093772832414 
715	 0,129541140644887 
716	 0,132087375898609 
717	 0,134069802958819 
718	 0,135729214544661 
719	 0,137242700862707 
720	 0,139022725014583 
721	 0,140908382780096 
722	 0,142642125848629 
723	 0,143807298888854 
724	 0,144585090081497 
725	 0,145903608394326 
726	 0,147340658661765 
727	 0,148619741730881 
728	 0,149818500720502 
729	 0,150725065347481 
730	 0,150915354019787 
731	 0,151530165589275 
732	 0,152698554638192 
733	 0,153225180616123 
734	 0,153770083041522 
735	 0,154867414835373 
736	 0,155237478101231 
737	 0,155174738047901 
738	 0,156043588239492 
739	 0,156565280944275 
740	 0,156455477067747 
741	 0,156951046973688 
742	 0,157634163919927 
743	 0,157914639819219 
744	 0,158221192988797 
745	 0,158605182030476 
746	 0,158942598727447 
747	 0,159240290275583 
748	 0,159495930837712 
749	 0,159677137480991 
750	 0,159868919896174 
751	 0,160198801698205 
752	 0,160612881170294 
753	 0,161036646474308 
754	 0,161322554268829 
755	 0,161340962452484 
756	 0,161081751916688 
757	 0,161338126226535 
758	 0,161947199248404 
759	 0,162358184782551 
760	 0,162419553492861 
761	 0,162169791494737 
762	 0,162117984367944 
763	 0,162265146008491 
764	 0,162576972807429 
765	 0,163012737773405 
766	 0,163327575589378 
767	 0,162850545607428 
768	 0,162866640163511 
769	 0,163687515382603 
770	 0,163786662080012 
771	 0,163687903158744 
772	 0,164141718696741 
773	 0,164302342370299 
774	 0,164207274242887 
775	 0,164601018213366 
776	 0,164750160705421 
777	 0,164415500558241 
778	 0,164733411045509 
779	 0,165328430032714 
780	 0,165470573686107 
781	 0,165594518771453 
782	 0,165776319132024 
783	 0,165907009841723 
784	 0,166009511806788 
785	 0,166086111056993 
786	 0,166020067639336 
787	 0,165918599751758 
788	 0,165979560884564 
789	 0,166270078238611 
790	 0,166657510807269 
791	 0,16649459909941 
792	 0,166397513308196 
793	 0,166831176158785 
794	 0,167112177011621 
795	 0,167192808981136 
796	 0,167217575377291 
797	 0,167258116047152 
798	 0,167386792194913 
799	 0,167789168565871 
800	 0,168015954701133 
801	 0,167693694356559 
802	 0,167752118309662 
803	 0,168098882053421 
804	 0,167988009143251 
805	 0,168108876840267 
806	 0,168580478672644 
807	 0,168648591834004 
808	 0,168572787034885 
809	 0,168678562707217 
810	 0,168668791302568 
811	 0,168625120669923 
812	 0,168987324277562 
813	 0,168990081005032 
814	 0,168517265199994 
815	 0,169022941957631 
816	 0,169585907825566 
817	 0,16901672654734 
818	 0,168982998605425 
819	 0,169577033702049 
820	 0,169947992067938 
821	 0,170053189393224 
822	 0,169919617482842 
823	 0,170064399630579 
824	 0,170281533878933 
825	 0,170239968962759 
826	 0,170100155991916 
827	 0,170020152152823 
828	 0,170416627635978 
829	 0,170537434371978 
830	 0,17012288740474 
831	 0,17029254146113 
832	 0,170720143633333 
833	 0,170800533454582 
834	 0,170638970867984 
835	 0,170340149946393 
836	 0,170131864475494 
837	 0,170221228176465 
838	 0,170604646404875 
839	 0,170369134956367 
840	 0,170004534470469 
841	 0,170335093314889 
842	 0,17035547461805 
843	 0,170136600239355 
844	 0,170824567762032 
845	 0,171249473626037 
846	 0,170849844296111 
847	 0,170575276859725 
848	 0,170560860774149 
849	 0,170830213866847 
850	 0,17069086373065 
851	 0,170191531673743 
852	 0,170099286438194 
853	 0,17013410252648 
854	 0,170267475580101 
855	 0,171404079600196 
856	 0,172448517451918 
857	 0,171836880064853 
858	 0,17120987514369 
859	 0,170895313798621 
860	 0,17047683505415 
861	 0,170235440513784 
862	 0,170290125295107 
863	 0,170421894925597 
864	 0,170495984165633 
865	 0,170384528081219 
866	 0,170781161360362 
867	 0,171497590782593 
868	 0,171473777615592 
869	 0,171418856891351 
870	 0,171556827245449 
871	 0,171082671862535 
872	 0,170556465676157 
873	 0,170701383746927 
874	 0,170581756786145 
875	 0,170334211446442 
876	 0,170920322698162 
877	 0,171715607529493 
878	 0,172306908444966 
879	 0,172088614019802 
880	 0,17174925860445 
881	 0,172026575264744 
882	 0,171509507485416 
883	 0,170689928622598 
884	 0,171602625386214 
885	 0,172423579391158 
886	 0,172489663747005 
887	 0,172132672107406 
888	 0,171803990266234 
889	 0,171903867690829 
890	 0,172110162327545 
891	 0,172283604880779 
892	 0,172260932996489 
893	 0,172216863374479 
894	 0,172210394428454 
895	 0,172305015155959 
896	 0,171989598238759 
897	 0,17104687297376 
898	 0,171307758085594 
899	 0,172276907549491 
900	 0,172569526674363 
901	 0,172712054363092 
902	 0,172756905097652 
903	 0,172443831935727 
904	 0,172202673679972 
905	 0,172317611767442 
906	 0,172745562419194 
907	 0,173027447254681 
908	 0,172551063978124 
909	 0,172424276774722 
910	 0,172697346845449 
911	 0,172618407993819 
912	 0,172405495699926 
913	 0,172172760483407 
914	 0,171976424752493 
915	 0,171913672237073 
916	 0,172092737413001 
917	 0,17300406068038 
918	 0,173794830022753 
919	 0,171971354796312 
920	 0,171146417320208 
921	 0,172135967198754 
922	 0,172171846977145 
923	 0,171764214262573 
924	 0,171501856838045 
925	 0,171899920324583 
926	 0,172662899590529 
927	 0,173161175864172 
928	 0,172310361403618 
929	 0,17078347138661 
930	 0,172405467359703 
931	 0,173123005936226 
932	 0,171076552132915 
933	 0,171169066748067 
934	 0,172181968324165 
935	 0,171908061085038 
936	 0,17206766465155 
937	 0,172503098759641 
938	 0,17173298961968 
939	 0,171265976079915 
940	 0,171447277648251 
941	 0,170799731193772 
942	 0,170374415929558 
943	 0,171047340646066 
944	 0,171252357908413 
945	 0,170864972565488 
946	 0,170140566714072 
947	 0,16987835769147 
948	 0,170198076749091 
949	 0,170742407377508 
950	 0,170037928269965 
951	 0,16762664317788 
952	 0,166113784190874 
953	 0,166595695355476 
954	 0,169684935518791 
955	 0,168642774500894 
956	 0,164854869039197 
957	 0,165684311077504 
958	 0,167022823854915 
959	 0,167407579891975 
960	 0,166563754961112 
961	 0,166023258665061 
962	 0,166803359278222 
963	 0,167018975229705 
964	 0,166672223904189 
965	 0,166192000913015 
966	 0,166726097879143 
967	 0,167741037900491 
968	 0,166526013233777 
969	 0,166145410429203 
970	 0,167300095384572 
971	 0,166105045780179 
972	 0,16493570952832 
973	 0,166023720987691 
974	 0,166855249379861 
975	 0,167288823978728 
976	 0,167849450356092 
977	 0,167873029988887 
978	 0,167514931979038 
979	 0,167876394458211 
980	 0,168527887654595 
981	 0,168745796570176 
982	 0,16538485347658 
983	 0,163471046065359 
984	 0,167727063681089 
985	 0,169634974002203 
986	 0,168647762302967 
987	 0,166860834522281 
988	 0,166320892172875 
989	 0,167133853014609 
990	 0,166553271497623 
991	 0,167364616245729 
992	 0,170027936059656 
993	 0,168214373546234 
994	 0,165888452147555 
995	 0,167477265350272 
996	 0,169129532134857 
997	 0,170139793307719 
998	 0,170530639143164 
999	 0,169559654453994 
1000	 0,167999145761827 
1001	 0,169217227597288 
1002	 0,169886595650536 
1003	 0,168674480614197 
1004	 0,168121259398651 
1005	 0,168925980720261 
1006	 0,17135606149513 
1007	 0,173449324116395 
1008	 0,173587141585226 
1009	 0,169663236310086 
1010	 0,170433095535761 
1011	 0,174468830271929 
1012	 0,168342834585071 
1013	 0,166057342071687 
1014	 0,171964630035528 
1015	 0,174346408610748 
1016	 0,173821074952974 
1017	 0,171701838657496 
1018	 0,170157400035397 
1019	 0,169885203579371 
1020	 0,171148858213857 
1021	 0,168964148272206 
1022	 0,166754625787973 
1023	 0,178311884754052 
1024	 0,181930840478051 
1025	 0,173746067523544 
1026	 0,172783040799092 
1027	 0,175816829748216 
1028	 0,179425106442365 
1029	 0,177560017168595 
1030	 0,174534816788503 
1031	 0,175800722344019 
1032	 0,17257400746104 
1033	 0,16915133922612 
1034	 0,177136871802881 
1035	 0,181704826476986 
1036	 0,179874215733534 
1037	 0,177636568276227 
1038	 0,175136055964998 
1039	 0,172999399631331 
1040	 0,171874462249265 
1041	 0,172491115464422 
1042	 0,17495728387042 
1043	 0,175597432752282 
1044	 0,174715599989981 
1045	 0,1737049374288 
1046	 0,176570238728522 
1047	 0,181329622526906 
1048	 0,181665568404725 
1049	 0,176984010956124 
1050	 0,169790374797902 
1051	 0,168425785554853 
1052	 0,176236384120601 
1053	 0,190546131150526 
1054	 0,192851215965794 
1055	 0,182429445522498 
1056	 0,163243304898396 
1057	 0,163302303727646 
1058	 0,173288920971568 
1059	 0,173878189428022 
1060	 0,169225832621736 
1061	 0,166095284130611 
1062	 0,1792641881972 
1063	 0,184609704117891 
1064	 0,179237214929971 
1065	 0,180137529519666 
1066	 0,178667391408477 
1067	 0,172963438329766 
1068	 0,173910875078874 
1069	 0,175618514904492 
1070	 0,174360586357429 
1071	 0,179894139450462 
1072	 0,186670337079397 
1073	 0,186861264552553 
1074	 0,176236707830522 
1075	 0,165072382757547 
