Wavelength	SCO-GRA00492.asd
325	 0,228717453328241 
326	 0,108727605410143 
327	-0,138227693968127 
328	-0,29546911969573 
329	-0,107270787514677 
330	 4,69834414604707E-02 
331	 4,17659512640624E-02 
332	 3,76218847953785E-02 
333	 2,92611384898476E-02 
334	-5,47860665448301E-02 
335	-4,15321294928697E-02 
336	 9,14653037306655E-02 
337	 0,139075307310984 
338	 0,107427672514658 
339	 2,86797002842132E-02 
340	 1,54888687435222E-02 
341	 5,03417431730712E-02 
342	 6,08676234068314E-02 
343	 3,70091800210207E-02 
344	-5,72522931156134E-03 
345	 4,50529438801405E-02 
346	 7,71599300151417E-02 
347	-5,92244078323337E-03 
348	-1,63186428680593E-02 
349	 0,037299160207089 
350	 1,88777494926682E-02 
351	 5,55547822555487E-03 
352	 1,86521173120424E-02 
353	 2,90974488896788E-02 
354	 2,79579727411222E-02 
355	 8,04703392628923E-03 
356	-1,51670226446432E-02 
357	-2,62698737291602E-02 
358	-2,57621853346306E-03 
359	 1,49693936022169E-02 
360	 9,13396604447518E-03 
361	 1,45884573016622E-02 
362	 1,91561937649084E-02 
363	 1,39422783070374E-03 
364	 4,43593267400699E-03 
365	 0,027785894611037 
366	 3,39952557827856E-02 
367	 0,026924343866896 
368	 1,25967583994259E-02 
369	 2,65607790795877E-02 
370	 3,84275523488039E-02 
371	-1,37571830921934E-02 
372	-2,67409319233063E-02 
373	 1,68425892100738E-02 
374	 5,61506021777423E-02 
375	 6,58285218168734E-02 
376	 3,37811579801204E-02 
377	 1,86747599807881E-02 
378	 2,23569282824432E-02 
379	 2,28012003380043E-02 
380	 1,86680744430871E-02 
381	 1,18981091209891E-02 
382	 1,80989545979315E-02 
383	 2,47220385495935E-02 
384	 1,94151552545593E-02 
385	 1,45639089632024E-02 
386	 0,01387552037883 
387	 2,05626585008747E-02 
388	 2,47599583491475E-02 
389	 2,23926210270076E-02 
390	 1,70454078087161E-02 
391	 1,63113045386388E-02 
392	 2,88445071020143E-02 
393	 0,030738644700101 
394	 2,31880132556961E-02 
395	 2,72753784958068E-02 
396	 2,92134820072499E-02 
397	 2,35180134217652E-02 
398	 2,16411630257792E-02 
399	 2,27001315008021E-02 
400	 0,023727065520279 
401	 1,91397706769155E-02 
402	 1,15725081410348E-02 
403	 1,63201609880245E-02 
404	 2,03916551837463E-02 
405	 1,57916172297209E-02 
406	 1,61516899592185E-02 
407	 1,99952006510421E-02 
408	 2,07577844627844E-02 
409	 1,85309846258054E-02 
410	 1,48008640305411E-02 
411	 1,66038872583126E-02 
412	 1,73075993506979E-02 
413	 1,11240466735222E-02 
414	 1,29128886653342E-02 
415	 0,019506439164694 
416	 1,63091367255364E-02 
417	 1,43703795655764E-02 
418	 1,73499388179546E-02 
419	 1,83474974140726E-02 
420	 1,85486762605127E-02 
421	 2,02158032344792E-02 
422	 2,02599901352614E-02 
423	 1,83519335022939E-02 
424	 1,50138264432092E-02 
425	 1,44024431490726E-02 
426	 1,85988719445536E-02 
427	 2,21043435268326E-02 
428	 2,43405893504436E-02 
429	 0,026107297270537 
430	 2,42777760112572E-02 
431	 0,019458409599301 
432	 1,78039518246282E-02 
433	 0,017562354708899 
434	 1,70539178853505E-02 
435	 1,88908772751666E-02 
436	 2,16424195461845E-02 
437	 2,11264653671189E-02 
438	 1,89860440729974E-02 
439	 1,64251566171733E-02 
440	 1,62125924379781E-02 
441	 1,79205866564581E-02 
442	 2,06506743948311E-02 
443	 1,94758332094762E-02 
444	 1,58249421702554E-02 
445	 1,90233909287658E-02 
446	 2,08851032155359E-02 
447	 0,017171571914827 
448	 1,83436743827157E-02 
449	 0,021510025889966 
450	 1,88168951552607E-02 
451	 1,51115810801336E-02 
452	 1,28589429660302E-02 
453	 1,58057845918928E-02 
454	 0,018858624329931 
455	 1,75069719688535E-02 
456	 1,81252207648158E-02 
457	 2,07058699125469E-02 
458	 2,25997991534148E-02 
459	 2,11354484232197E-02 
460	 1,61000944177775E-02 
461	 1,40835015916996E-02 
462	 1,54295801450857E-02 
463	 1,95691849835701E-02 
464	 0,020869310525968 
465	 1,86927772690573E-02 
466	 1,62270917236323E-02 
467	 1,60954406215471E-02 
468	 1,95548989515301E-02 
469	 2,09032636983397E-02 
470	 2,05919049889875E-02 
471	 2,12163114033933E-02 
472	 2,27750385965115E-02 
473	 2,47618593541376E-02 
474	 2,48918355584482E-02 
475	 0,023068098679993 
476	 1,94546863037307E-02 
477	 1,59411930964353E-02 
478	 1,46677106377496E-02 
479	 2,04064451841282E-02 
480	 2,36670625813039E-02 
481	 2,08528969564602E-02 
482	 2,13540784475041E-02 
483	 2,36390549688265E-02 
484	 2,39889962009644E-02 
485	 2,34940147181926E-02 
486	 2,24996417165468E-02 
487	 2,14335326627566E-02 
488	 2,03690422117774E-02 
489	 1,94704321201507E-02 
490	 1,99569574023561E-02 
491	 2,10567971693059E-02 
492	 2,08178206397155E-02 
493	 1,92885744228923E-02 
494	 1,72736932554874E-02 
495	 1,88713325807657E-02 
496	 2,16362622521965E-02 
497	 2,25102116814654E-02 
498	 2,35264784281368E-02 
499	 2,39668697835468E-02 
500	 1,97818981428163E-02 
501	 1,83326207565645E-02 
502	 2,28628909895066E-02 
503	 2,30897554242162E-02 
504	 2,06643034916555E-02 
505	 2,08234040942084E-02 
506	 2,11100785159397E-02 
507	 0,021221421275147 
508	 0,022779236908543 
509	 2,37201728677071E-02 
510	 2,23514274422923E-02 
511	 2,30337468594334E-02 
512	 2,48901116615977E-02 
513	 0,023409289323079 
514	 2,21064123903774E-02 
515	 0,022493066316186 
516	 2,38000319910704E-02 
517	 2,48030182540154E-02 
518	 2,39483582982544E-02 
519	 2,39976019166031E-02 
520	 2,50802781317806E-02 
521	 2,49998737989162E-02 
522	 2,41518858014133E-02 
523	 2,30050031531569E-02 
524	 2,29978284131457E-02 
525	 2,38413320403556E-02 
526	 2,44240705932048E-02 
527	 0,024662347847716 
528	 2,44929080760918E-02 
529	 2,41413760610821E-02 
530	 2,37322590280187E-02 
531	 0,023380110269973 
532	 2,37028113716034E-02 
533	 2,45116956681047E-02 
534	 2,48178717499841E-02 
535	 2,49447764905946E-02 
536	 2,50934438653455E-02 
537	 0,025386031173324 
538	 2,55923716588021E-02 
539	 2,52568099720828E-02 
540	 2,48254154185019E-02 
541	 2,45116408365904E-02 
542	 2,43994209902291E-02 
543	 2,47989359198682E-02 
544	 2,59374858693936E-02 
545	 2,65933773760791E-02 
546	 2,65127375545935E-02 
547	 2,56691381353744E-02 
548	 2,53658983795505E-02 
549	 2,60985170112533E-02 
550	 2,61330346928123E-02 
551	 2,59870403751019E-02 
552	 2,68003937613671E-02 
553	 2,71545408738423E-02 
554	 2,67924928188918E-02 
555	 2,63954700338947E-02 
556	 2,61472268036761E-02 
557	 2,61906419210491E-02 
558	 2,64371033152303E-02 
559	 2,67821700569986E-02 
560	 2,70300898229739E-02 
561	 2,73510529044498E-02 
562	 2,77121540056605E-02 
563	 2,76038832715557E-02 
564	 2,72296702131493E-02 
565	 0,026911671230493 
566	 2,68709819589577E-02 
567	 2,71367316467412E-02 
568	 2,76198425352373E-02 
569	 2,77244869286309E-02 
570	 2,71436206459921E-02 
571	 2,72630800646236E-02 
572	 2,78292732451448E-02 
573	 2,77812400041281E-02 
574	 2,78949168093929E-02 
575	 2,83353103008996E-02 
576	 2,84891727003065E-02 
577	 2,88255396813609E-02 
578	 2,98728217823308E-02 
579	 2,98527044793774E-02 
580	 2,90461323154404E-02 
581	 0,029596009709015 
582	 3,04783827780591E-02 
583	 3,10734880336735E-02 
584	 3,13641464641621E-02 
585	 3,15125790195566E-02 
586	 3,18352959242907E-02 
587	 3,20641281463827E-02 
588	 3,21343632841141E-02 
589	 3,20475201514524E-02 
590	 0,032196766594252 
591	 3,29031702027885E-02 
592	 3,32851858445634E-02 
593	 3,33101532013343E-02 
594	 3,34665041006912E-02 
595	 3,33277608780985E-02 
596	 3,28479598947695E-02 
597	 3,30753447963884E-02 
598	 0,033387307841402 
599	 3,26722881777301E-02 
600	 3,25995447384987E-02 
601	 3,33460165926385E-02 
602	 0,033744408029696 
603	 3,37650752652445E-02 
604	 3,34093870378719E-02 
605	 3,28332799026562E-02 
606	 3,22076759230853E-02 
607	 3,17588880549776E-02 
608	 3,16570336406947E-02 
609	 3,18805047623581E-02 
610	 3,17823104872403E-02 
611	 3,17967924514922E-02 
612	 3,25186828422248E-02 
613	 3,24944960775074E-02 
614	 0,031871859236183 
615	 0,032472050082558 
616	 0,032833720594721 
617	 3,21057000956887E-02 
618	 3,15711443178105E-02 
619	 3,13470968492993E-02 
620	 3,12373467939743E-02 
621	 3,14689594591645E-02 
622	 3,19015946496429E-02 
623	 3,16076324132697E-02 
624	 3,11509041100683E-02 
625	 3,11597271328305E-02 
626	 3,12998073580686E-02 
627	 3,14912833681468E-02 
628	 3,16610435465624E-02 
629	 3,20275681859267E-02 
630	 3,26356642178557E-02 
631	 3,30067080363105E-02 
632	 3,31368122766961E-02 
633	 3,31490648277086E-02 
634	 3,26373996109318E-02 
635	 3,18688985628412E-02 
636	 3,23270551578617E-02 
637	 3,29206414272238E-02 
638	 3,27831364461926E-02 
639	 3,37189209189772E-02 
640	 3,53308519305856E-02 
641	 3,60661282945722E-02 
642	 3,55359834681563E-02 
643	 3,40145425730783E-02 
644	 3,43969570326628E-02 
645	 3,55325286113434E-02 
646	 3,55739759680615E-02 
647	 0,035605026138771 
648	 3,57548048670592E-02 
649	 3,56746076022882E-02 
650	 3,52997780492248E-02 
651	 3,46614028760719E-02 
652	 3,44010942023352E-02 
653	 0,034479008165371 
654	 3,46401221324873E-02 
655	 3,45178010836332E-02 
656	 3,40405257598504E-02 
657	 3,36585621451284E-02 
658	 3,33106097448631E-02 
659	 3,28953025960644E-02 
660	 3,21256289986647E-02 
661	 3,12495481086778E-02 
662	 3,11477039866068E-02 
663	 3,10228743315217E-02 
664	 3,05787704050805E-02 
665	 3,08195555297019E-02 
666	 3,11969361289429E-02 
667	 3,07023189486303E-02 
668	 3,01860697116565E-02 
669	 2,98893370847472E-02 
670	 2,97545874668289E-02 
671	 2,95536458901623E-02 
672	 2,91439994869513E-02 
673	 2,90517587112187E-02 
674	 2,93429483904475E-02 
675	 0,030029068949429 
676	 3,04120483733966E-02 
677	 3,02663748076541E-02 
678	 3,01136361467645E-02 
679	 3,00398071673254E-02 
680	 3,00896859548047E-02 
681	 0,030325636248122 
682	 3,07450832664796E-02 
683	 3,13368014042814E-02 
684	 3,17859128016784E-02 
685	 3,19600924074343E-02 
686	 3,25220324929222E-02 
687	 3,31205533539641E-02 
688	 3,29004783572092E-02 
689	 3,35148927664319E-02 
690	 3,51602022141535E-02 
691	 3,62395746317003E-02 
692	 3,74091037372247E-02 
693	 0,039281482463265 
694	 4,11678666273974E-02 
695	 4,31529921957601E-02 
696	 4,57297313120675E-02 
697	 4,87697948835908E-02 
698	 5,21825581260535E-02 
699	 5,58158131470745E-02 
700	 0,059440323973387 
701	 0,062789863390732 
702	 6,65216799796908E-02 
703	 7,06768721548831E-02 
704	 7,47865643073943E-02 
705	 7,90424505632311E-02 
706	 8,34668929921104E-02 
707	 8,71640536874158E-02 
708	 9,05773810933479E-02 
709	 9,48219122676826E-02 
710	 0,098584438830526 
711	 0,1015766233616 
712	 0,104502710345863 
713	 0,107472077271027 
714	 0,110521668690575 
715	 0,113215312784174 
716	 0,115578940207887 
717	 0,117929656028289 
718	 0,120129069032896 
719	 0,122095393251578 
720	 0,123638931546657 
721	 0,12510471596404 
722	 0,126942704705445 
723	 0,128572234288633 
724	 0,129924257517154 
725	 0,131299109151866 
726	 0,132509199886699 
727	 0,133424598315255 
728	 0,133927305995348 
729	 0,134408515371646 
730	 0,135562439871918 
731	 0,136803653720796 
732	 0,137842965274338 
733	 0,138343523831588 
734	 0,138671495627817 
735	 0,139162660505721 
736	 0,139702312695013 
737	 0,140224517271918 
738	 0,140595595756207 
739	 0,140968041420575 
740	 0,141403717434511 
741	 0,1418887851647 
742	 0,14235016662759 
743	 0,142705698366936 
744	 0,142955922153989 
745	 0,143167319443965 
746	 0,143502684756187 
747	 0,144003389405843 
748	 0,144591046578313 
749	 0,144538644803587 
750	 0,144324900309457 
751	 0,144808418827023 
752	 0,145309188312363 
753	 0,145590703169702 
754	 0,145530087276919 
755	 0,145407637246766 
756	 0,145457380278867 
757	 0,14576553933458 
758	 0,146234601041361 
759	 0,146685002426266 
760	 0,146801202341943 
761	 0,146560397022472 
762	 0,146390515764012 
763	 0,146502567957044 
764	 0,147038175836061 
765	 0,147458428429759 
766	 0,147661878506252 
767	 0,147699671221907 
768	 0,147725666039974 
769	 0,14784129281105 
770	 0,148171873373869 
771	 0,148432299276442 
772	 0,148290788360662 
773	 0,148284975276836 
774	 0,148465951977205 
775	 0,148581451838437 
776	 0,148669387185658 
777	 0,14877094946685 
778	 0,149052863891978 
779	 0,149417868285406 
780	 0,149703925637663 
781	 0,149804939766551 
782	 0,149788496365678 
783	 0,15002175222157 
784	 0,150242120815535 
785	 0,15026658640291 
786	 0,150078848512468 
787	 0,149967287545578 
788	 0,15043983701809 
789	 0,150923891368823 
790	 0,151182361123645 
791	 0,151073710040606 
792	 0,150919245762561 
793	 0,151000059725656 
794	 0,151369588201344 
795	 0,151798999197608 
796	 0,151783154555309 
797	 0,151764402765228 
798	 0,151921651396106 
799	 0,152403267940028 
800	 0,152596453066347 
801	 0,152001262993291 
802	 0,151929601855875 
803	 0,152363189372415 
804	 0,152593550381514 
805	 0,15279689586507 
806	 0,152962634011981 
807	 0,152846268015044 
808	 0,152774195368605 
809	 0,153081116578299 
810	 0,153023167701466 
811	 0,15275282139725 
812	 0,15319127722932 
813	 0,153273883651739 
814	 0,152807074653325 
815	 0,153527956547039 
816	 0,154416071499973 
817	 0,15413189515914 
818	 0,154167061643848 
819	 0,154589693625801 
820	 0,154590821037764 
821	 0,154483585368698 
822	 0,154401046929962 
823	 0,154169551165797 
824	 0,154184443053584 
825	 0,154940011663409 
826	 0,155486424994942 
827	 0,155579488526196 
828	 0,155261528994287 
829	 0,155048990414511 
830	 0,155181721812002 
831	 0,155132170106364 
832	 0,155069871137825 
833	 0,155294448293385 
834	 0,15547461137639 
835	 0,155469335153021 
836	 0,155070763504623 
837	 0,154890088039158 
838	 0,155233772031247 
839	 0,15567434773452 
840	 0,15589116500784 
841	 0,15552530939497 
842	 0,155599194558818 
843	 0,156076823737643 
844	 0,155893425535227 
845	 0,155749628522035 
846	 0,155964283050806 
847	 0,15591345844384 
848	 0,155717745194898 
849	 0,155638299077297 
850	 0,155832186476925 
851	 0,156147351664351 
852	 0,155936497211935 
853	 0,155683575158969 
854	 0,155744795811842 
855	 0,156614156254357 
856	 0,157440460405503 
857	 0,157027937273888 
858	 0,156801565157954 
859	 0,156939728883495 
860	 0,156793641949248 
861	 0,156693901292474 
862	 0,156732635096561 
863	 0,156349054017 
864	 0,155932240125699 
865	 0,156047738787043 
866	 0,156455886838662 
867	 0,15682554275667 
868	 0,156227875638516 
869	 0,156404679688337 
870	 0,157787391643098 
871	 0,157494943712389 
872	 0,156696949277986 
873	 0,157078630803479 
874	 0,157202473380141 
875	 0,156877560123358 
876	 0,156328754643923 
877	 0,156404205251237 
878	 0,157245036075672 
879	 0,157228213915005 
880	 0,157254644606585 
881	 0,158323845651004 
882	 0,158245634951165 
883	 0,157307541058503 
884	 0,15738584178647 
885	 0,157725211441132 
886	 0,158036333321163 
887	 0,158145567974332 
888	 0,158018876380232 
889	 0,157719414851035 
890	 0,158309557655827 
891	 0,159180497702406 
892	 0,158552277710462 
893	 0,158258730398926 
894	 0,15866480429943 
895	 0,158569880278207 
896	 0,158314785368409 
897	 0,158206886819421 
898	 0,158235715725581 
899	 0,158361559519995 
900	 0,15851315151292 
901	 0,158522776603442 
902	 0,158407074865429 
903	 0,158487292009971 
904	 0,158345103384563 
905	 0,157852061265614 
906	 0,15806557491851 
907	 0,158611026108162 
908	 0,158778548865316 
909	 0,158394616988285 
910	 0,157845611902816 
911	 0,158507317110398 
912	 0,159109401423351 
913	 0,159166101953293 
914	 0,15978902497704 
915	 0,160163271854429 
916	 0,159364649555314 
917	 0,158756865181975 
918	 0,158469178815808 
919	 0,157900107730077 
920	 0,158435496291002 
921	 0,159943372380934 
922	 0,159576352424962 
923	 0,158393794575404 
924	 0,15757769310512 
925	 0,158602988621816 
926	 0,16028187226637 
927	 0,160097695938377 
928	 0,159158706945263 
929	 0,158166559537247 
930	 0,158577844469919 
931	 0,158550701938496 
932	 0,157340548205591 
933	 0,157789199287162 
934	 0,159012798039157 
935	 0,159484370149441 
936	 0,159345729375712 
937	 0,15877366552884 
938	 0,158210044138295 
939	 0,157955490546338 
940	 0,158087743229579 
941	 0,158236616935282 
942	 0,158095574375317 
943	 0,157497419344199 
944	 0,157358133877543 
945	 0,157618637233541 
946	 0,157864199092273 
947	 0,1583150528488 
948	 0,158450519662188 
949	 0,156238672681528 
950	 0,15433925053753 
951	 0,154188795684482 
952	 0,153899826878848 
953	 0,154389297613239 
954	 0,156757486092828 
955	 0,156450100489255 
956	 0,154099696122631 
957	 0,153755459119826 
958	 0,154484413634052 
959	 0,155620011131906 
960	 0,155317937177546 
961	 0,154505202341145 
962	 0,153934085041035 
963	 0,153102647052835 
964	 0,152434075361254 
965	 0,152604401565717 
966	 0,154457548222197 
967	 0,15664284034581 
968	 0,154277547647587 
969	 0,15350700621501 
970	 0,156062213059833 
971	 0,155834936841736 
972	 0,154861956584144 
973	 0,155209449083945 
974	 0,154516692136316 
975	 0,153687446480456 
976	 0,154967853724463 
977	 0,155245730759719 
978	 0,15425774991874 
979	 0,154238453445068 
980	 0,154245178977077 
981	 0,153973052666517 
982	 0,15427818063043 
983	 0,155098924068813 
984	 0,156168320473772 
985	 0,155877923847382 
986	 0,155024233933179 
987	 0,155749388048131 
988	 0,156218153086243 
989	 0,155587846345596 
990	 0,152423965622839 
991	 0,151898745094184 
992	 0,155521422447114 
993	 0,154414684259472 
994	 0,153122356196131 
995	 0,156527211657549 
996	 0,156031752081393 
997	 0,153326354578549 
998	 0,154686091379149 
999	 0,156195418487019 
1000	 0,156601289685537 
1001	 0,155271920754233 
1002	 0,155377126343276 
1003	 0,157829082860021 
1004	 0,15781409408378 
1005	 0,156944237936579 
1006	 0,157210861401244 
1007	 0,158994285113712 
1008	 0,159948974544546 
1009	 0,15579699599846 
1010	 0,15730868271135 
1011	 0,163191287145688 
1012	 0,159336937684932 
1013	 0,156618051818586 
1014	 0,159108848548652 
1015	 0,161567365640392 
1016	 0,161905744723697 
1017	 0,158987133102009 
1018	 0,157318287316581 
1019	 0,156175982573098 
1020	 0,153499145370343 
1021	 0,15607951277741 
1022	 0,162209068024548 
1023	 0,163132210877038 
1024	 0,161745739676912 
1025	 0,159538290514393 
1026	 0,159091717751346 
1027	 0,159477725369028 
1028	 0,160147655551311 
1029	 0,162579297665877 
1030	 0,163623659403215 
1031	 0,159966501685207 
1032	 0,159256427492615 
1033	 0,160324373749615 
1034	 0,157422265760838 
1035	 0,161418964734632 
1036	 0,170902458092491 
1037	 0,170394963294099 
1038	 0,166793339546878 
1039	 0,163954247281496 
1040	 0,163694398318099 
1041	 0,16648696465716 
1042	 0,171060581570975 
1043	 0,164626288659794 
1044	 0,157992026895956 
1045	 0,167180692737619 
1046	 0,1704798383767 
1047	 0,167617388011444 
1048	 0,169137862251186 
1049	 0,171614907198774 
1050	 0,172298603641875 
1051	 0,163699729803814 
1052	 0,15992781725132 
1053	 0,166719352081209 
1054	 0,172379911948434 
1055	 0,169774345214837 
1056	 0,156502902341573 
1057	 0,161941500122887 
1058	 0,174588336603686 
1059	 0,172348507759582 
1060	 0,16205053509887 
1061	 0,151148660069787 
1062	 0,154382849453292 
1063	 0,164473232651927 
1064	 0,173932166838421 
1065	 0,165245278565349 
1066	 0,15294822052977 
1067	 0,146674654939215 
1068	 0,156146793264 
1069	 0,166175132627266 
1070	 0,165231295933743 
1071	 0,158054465533012 
1072	 0,15685968394335 
1073	 0,172616813718939 
1074	 0,16171946382202 
1075	 0,14143298885161 
