Wavelength	SCO-GRA00295.asd
325	 0,237764248646463 
326	 0,165156064981057 
327	-6,16090299950533E-03 
328	-0,180218030648122 
329	-8,33288632205077E-02 
330	 2,79920413397707E-02 
331	 0,049694881481174 
332	 9,38086053384157E-02 
333	 0,134181112619219 
334	 9,13260292591538E-02 
335	 2,41177354507438E-02 
336	-1,55631759430229E-02 
337	 8,98298935480598E-02 
338	 0,150415386347652 
339	 1,72057412857605E-02 
340	-2,45825249298913E-02 
341	 1,62819612318486E-02 
342	 3,00007486633777E-02 
343	 4,34293148181268E-02 
344	 5,41536965557315E-02 
345	 1,99239333349308E-02 
346	-2,37264501357885E-02 
347	-4,93580881101882E-02 
348	 3,55129061059676E-03 
349	 9,11034737323258E-02 
350	 7,81014417795559E-02 
351	 4,55893105557361E-02 
352	 2,53997163379577E-02 
353	 0,029931903112936 
354	 3,27759021966146E-02 
355	 2,80789811154519E-03 
356	-2,09490030302104E-02 
357	-0,024153444350338 
358	 2,14221862236205E-04 
359	 2,02466096479127E-02 
360	 1,84087987879418E-02 
361	-7,91700663867287E-03 
362	-2,53734416900141E-02 
363	 7,72607057369832E-03 
364	 2,59370894279277E-02 
365	 1,84421471612582E-02 
366	 9,26026800305044E-03 
367	 8,91567019851222E-03 
368	 0,022285878660983 
369	 0,029844849719457 
370	 2,88960910315184E-02 
371	 1,98978278480629E-02 
372	 1,43664632156268E-02 
373	 1,75626178453777E-02 
374	 3,25749862724094E-02 
375	 4,61182076223723E-02 
376	 4,85665003516697E-02 
377	 3,42413636981809E-02 
378	 1,35741938081345E-02 
379	 7,91881597372883E-03 
380	 4,11360072957281E-03 
381	 1,19502038007015E-03 
382	 1,45839132292247E-02 
383	 2,29149546891304E-02 
384	 6,84958705426548E-03 
385	 9,21544512761433E-03 
386	 2,20684545646761E-02 
387	 6,55538875148446E-03 
388	-3,60333811980474E-03 
389	 3,79845893408881E-03 
390	 1,34623686444925E-02 
391	 1,73111525061334E-02 
392	 6,84393702084589E-03 
393	 1,57779237629034E-02 
394	 3,92387290571654E-02 
395	 0,04130138403236 
396	 3,76117372864392E-02 
397	 3,48524390722499E-02 
398	 2,09518497994305E-02 
399	 7,62352336129594E-03 
400	 1,32424798638874E-02 
401	 1,49821883429388E-02 
402	 1,11155980471844E-02 
403	 2,00049322311441E-02 
404	 2,15411489548866E-02 
405	 5,01876434291325E-03 
406	 9,50852655495393E-03 
407	 2,33481371222686E-02 
408	 1,03382900439074E-02 
409	 6,8376747370923E-03 
410	 1,76751369106767E-02 
411	 1,35906533768035E-02 
412	 7,66388216058624E-03 
413	 1,26840009340117E-02 
414	 1,15205104107377E-02 
415	 6,83880986543228E-03 
416	 1,33160452553077E-02 
417	 1,74540613420543E-02 
418	 1,44978736543735E-02 
419	 1,21021845455613E-02 
420	 1,07669869503884E-02 
421	 1,00660215248259E-02 
422	 1,22848002907334E-02 
423	 1,55432303254064E-02 
424	 1,20679636622318E-02 
425	 1,02758720657327E-02 
426	 1,46956507827596E-02 
427	 1,71919119635029E-02 
428	 1,72378190514647E-02 
429	 1,56376448067593E-02 
430	 1,59190222680047E-02 
431	 1,78842658167664E-02 
432	 1,53345057715458E-02 
433	 1,23008809009629E-02 
434	 1,24294969413062E-02 
435	 1,26135645713186E-02 
436	 1,26020148873403E-02 
437	 1,34494467685262E-02 
438	 1,31544964330725E-02 
439	 1,13307611516447E-02 
440	 0,011110735733423 
441	 1,09590403394485E-02 
442	 8,59341451875966E-03 
443	 8,66559312205752E-03 
444	 0,01112290144465 
445	 1,23355665994772E-02 
446	 1,15320102818774E-02 
447	 8,81686853676141E-03 
448	 9,73003279043969E-03 
449	 1,24763451523138E-02 
450	 0,012467353083093 
451	 1,08146336604374E-02 
452	 8,71526724154752E-03 
453	 9,96896080032357E-03 
454	 1,24748934950504E-02 
455	 1,40456196901062E-02 
456	 0,013744808547303 
457	 1,23606424191813E-02 
458	 1,28433583643533E-02 
459	 1,19060243491207E-02 
460	 8,7782608101874E-03 
461	 7,30501910407947E-03 
462	 8,39557907501335E-03 
463	 1,26475535662822E-02 
464	 1,50169520760833E-02 
465	 0,014101864728094 
466	 9,90499301383676E-03 
467	 7,88221442469338E-03 
468	 1,10652058544908E-02 
469	 1,13533156046438E-02 
470	 1,00004969637629E-02 
471	 1,18620061105199E-02 
472	 1,48065983415165E-02 
473	 1,68987922418759E-02 
474	 1,25477897579739E-02 
475	 7,4560196273286E-03 
476	 7,31319295006506E-03 
477	 7,16063611773371E-03 
478	 7,20022753150366E-03 
479	 1,09662493934837E-02 
480	 1,39641306548071E-02 
481	 1,42824650597756E-02 
482	 1,49698689582135E-02 
483	 1,56595485962545E-02 
484	 1,53910325828151E-02 
485	 1,37411013349813E-02 
486	 1,14868341798801E-02 
487	 1,17531261720597E-02 
488	 0,012629704039393 
489	 1,25856153921605E-02 
490	 1,19861044787885E-02 
491	 1,11845636123059E-02 
492	 1,08491511730859E-02 
493	 1,06005711729326E-02 
494	 1,05462894056451E-02 
495	 1,19215183236085E-02 
496	 1,31755670779765E-02 
497	 1,25514220711967E-02 
498	 0,013631310121514 
499	 0,015485365723356 
500	 1,24922029559064E-02 
501	 1,05429126715037E-02 
502	 1,25033113575649E-02 
503	 1,23875170488527E-02 
504	 1,09929494852742E-02 
505	 1,10670318293492E-02 
506	 1,10309757325151E-02 
507	 1,08936215765195E-02 
508	 1,29085765750229E-02 
509	 1,36090295211437E-02 
510	 1,01607453051935E-02 
511	 9,41547217850613E-03 
512	 1,12572048005302E-02 
513	 1,19813894495444E-02 
514	 1,19063155812167E-02 
515	 1,13057988846984E-02 
516	 1,17167038766483E-02 
517	 1,26615864510696E-02 
518	 1,32903675739503E-02 
519	 1,32949438742102E-02 
520	 0,012735601349909 
521	 1,21127800191713E-02 
522	 1,20790972510766E-02 
523	 1,29225597453183E-02 
524	 0,012414460815189 
525	 1,12079155390463E-02 
526	 0,011549193162709 
527	 1,19963667779734E-02 
528	 1,21803555440462E-02 
529	 1,30236315030677E-02 
530	 1,32339016411201E-02 
531	 1,13452806932801E-02 
532	 1,06646175212698E-02 
533	 1,15614404597848E-02 
534	 0,012725069851672 
535	 1,31784641885354E-02 
536	 1,24256822461674E-02 
537	 1,18558650479681E-02 
538	 1,16530610884205E-02 
539	 1,17883847461169E-02 
540	 1,16973054964905E-02 
541	 0,01123434278337 
542	 1,05486886271036E-02 
543	 1,05475100764813E-02 
544	 1,19937966228096E-02 
545	 1,26117132087707E-02 
546	 1,21371046526729E-02 
547	 1,10905553307737E-02 
548	 1,08628427801084E-02 
549	 1,19817154761037E-02 
550	 1,26412494047411E-02 
551	 1,26427813087317E-02 
552	 1,20172438675929E-02 
553	 1,16662718026075E-02 
554	 1,17220747617137E-02 
555	 1,13220674722618E-02 
556	 1,13019594124267E-02 
557	 1,22514270292441E-02 
558	 1,23243260544334E-02 
559	 1,17464495226915E-02 
560	 1,19934570726551E-02 
561	 1,20369895618807E-02 
562	 0,011618512386357 
563	 1,16936412957414E-02 
564	 1,18589701385789E-02 
565	 1,14778131060478E-02 
566	 1,12752069108671E-02 
567	 1,13971360645135E-02 
568	 1,16715660326828E-02 
569	 1,18963765458963E-02 
570	 1,19471977665993E-02 
571	 1,22171292437739E-02 
572	 1,24163454637087E-02 
573	 1,17507978166878E-02 
574	 1,12530712194151E-02 
575	 1,12983153814626E-02 
576	 1,15111083991489E-02 
577	 1,22342437034794E-02 
578	 1,38193959482757E-02 
579	 1,41900914019885E-02 
580	 1,34238038170072E-02 
581	 1,33140117519527E-02 
582	 0,013667941786029 
583	 1,42499021185888E-02 
584	 1,37367356656017E-02 
585	 1,31588924557352E-02 
586	 1,47316941066248E-02 
587	 0,015339630449274 
588	 1,43889381821917E-02 
589	 1,38111349476231E-02 
590	 1,36252690685149E-02 
591	 1,37674227600514E-02 
592	 0,01416320944837 
593	 1,46462287108251E-02 
594	 1,49705141003125E-02 
595	 1,47991094217773E-02 
596	 1,41971901943832E-02 
597	 0,014852505108289 
598	 1,56364205691436E-02 
599	 1,45902445451423E-02 
600	 1,42719026089063E-02 
601	 1,50222849602046E-02 
602	 1,53320141020299E-02 
603	 1,49278942406744E-02 
604	 1,37589266016109E-02 
605	 1,36269093996051E-02 
606	 1,42293887345809E-02 
607	 1,40742560902975E-02 
608	 1,35479668239487E-02 
609	 1,29385856937418E-02 
610	 0,013212520945949 
611	 1,37676031724967E-02 
612	 1,37631960464409E-02 
613	 1,39367592727612E-02 
614	 0,014298681326681 
615	 1,44257265227062E-02 
616	 1,40156119512171E-02 
617	 1,30187724935327E-02 
618	 1,27994022833314E-02 
619	 1,30762899707035E-02 
620	 1,28649887202933E-02 
621	 1,27911266910042E-02 
622	 1,29075689232583E-02 
623	 1,25391672182414E-02 
624	 1,21737143939282E-02 
625	 0,012339698491701 
626	 1,27490910570051E-02 
627	 1,31363265468978E-02 
628	 1,29585035679883E-02 
629	 1,26405139945282E-02 
630	 1,25150898316175E-02 
631	 1,31847170010332E-02 
632	 1,41439650457344E-02 
633	 1,45109831113641E-02 
634	 1,42430016797149E-02 
635	 1,35785718024626E-02 
636	 1,35464388429754E-02 
637	 0,01382700839592 
638	 1,41091698749132E-02 
639	 1,43588023330298E-02 
640	 1,46662025030263E-02 
641	 1,54148638249525E-02 
642	 1,56924972952419E-02 
643	 1,52656231848658E-02 
644	 1,52200602620578E-02 
645	 1,54125451676556E-02 
646	 1,55159127766769E-02 
647	 1,58755408160095E-02 
648	 1,62900886248541E-02 
649	 1,58498931852301E-02 
650	 1,52440800090431E-02 
651	 0,014965979396613 
652	 1,49529016873784E-02 
653	 1,50131850900015E-02 
654	 0,014784628118201 
655	 1,44041908210381E-02 
656	 1,40431312723081E-02 
657	 0,014380869607713 
658	 1,44780823062371E-02 
659	 1,33831445120514E-02 
660	 1,27228358368698E-02 
661	 1,26786857566984E-02 
662	 1,27102993717926E-02 
663	 1,25727993275471E-02 
664	 0,012212546116874 
665	 1,24085340359647E-02 
666	 1,27373926772043E-02 
667	 1,24167531943976E-02 
668	 1,19685265860768E-02 
669	 1,15738010928951E-02 
670	 1,12796048664098E-02 
671	 1,11669284387536E-02 
672	 1,12910736193109E-02 
673	 1,15716654532733E-02 
674	 0,011865257188038 
675	 1,18696914604894E-02 
676	 1,20564097421506E-02 
677	 1,24152624993065E-02 
678	 1,18068191230419E-02 
679	 1,12321623016951E-02 
680	 1,19546647112591E-02 
681	 1,21857576732697E-02 
682	 1,18182501066181E-02 
683	 1,19228423723755E-02 
684	 1,21100240767744E-02 
685	 1,22210674386138E-02 
686	 1,29096922585253E-02 
687	 1,36227905600323E-02 
688	 1,31923135292331E-02 
689	 1,34139401314258E-02 
690	 1,45761275873122E-02 
691	 1,52338059961559E-02 
692	 0,016120274061271 
693	 1,78688808861903E-02 
694	 1,91661509338431E-02 
695	 2,01787431025651E-02 
696	 0,021827831632625 
697	 2,43694933941371E-02 
698	 2,78412593837571E-02 
699	 0,031512084454168 
700	 3,53558484691647E-02 
701	 0,039431362122286 
702	 4,43190389832654E-02 
703	 4,97823912903794E-02 
704	 5,45351682996705E-02 
705	 5,95540524862882E-02 
706	 6,53889685025712E-02 
707	 7,10413571976403E-02 
708	 7,65173083434517E-02 
709	 8,21019577605882E-02 
710	 8,78810485083925E-02 
711	 9,37728182126478E-02 
712	 9,93652565328927E-02 
713	 0,1046625473735 
714	 0,109691615734694 
715	 0,11483484825226 
716	 0,119927205213505 
717	 0,124396412709566 
718	 0,128429769895594 
719	 0,13215436285756 
720	 0,135824276323099 
721	 0,139516124753044 
722	 0,143285181464815 
723	 0,146477380773333 
724	 0,14915933495747 
725	 0,152156545360807 
726	 0,154911637958668 
727	 0,157107579543298 
728	 0,159138799657769 
729	 0,161060182170514 
730	 0,162858980802091 
731	 0,164536540184495 
732	 0,166072203035442 
733	 0,167346589515185 
734	 0,168569200436038 
735	 0,169909469625399 
736	 0,171084074800147 
737	 0,172074186647958 
738	 0,172944022735056 
739	 0,17385950156077 
740	 0,17484140527234 
741	 0,175613407136826 
742	 0,176121477555441 
743	 0,17634683589916 
744	 0,176922535218285 
745	 0,177809998479137 
746	 0,178417730934611 
747	 0,178864484035625 
748	 0,179217525467661 
749	 0,179555302609582 
750	 0,179915810785365 
751	 0,180330209455982 
752	 0,180824320897374 
753	 0,18129163944225 
754	 0,181333757832883 
755	 0,181332530686007 
756	 0,181554158543019 
757	 0,181612508558738 
758	 0,181718216745639 
759	 0,182464502792075 
760	 0,182784009064328 
761	 0,182497145645211 
762	 0,182557822855652 
763	 0,182842272081454 
764	 0,183168544425986 
765	 0,183297181329546 
766	 0,183243693810553 
767	 0,183129432696709 
768	 0,183352397968058 
769	 0,183938887047407 
770	 0,183969646311216 
771	 0,183852788110256 
772	 0,184149444026212 
773	 0,184229406611736 
774	 0,184130249842395 
775	 0,184424216778238 
776	 0,1845961599368 
777	 0,184435953362803 
778	 0,184433453098069 
779	 0,184658419262488 
780	 0,185133337925321 
781	 0,185215564077074 
782	 0,184928774928775 
783	 0,185031954207972 
784	 0,185249902034421 
785	 0,185395862564057 
786	 0,185532272457084 
787	 0,185604186617735 
788	 0,185495935291997 
789	 0,185588931934204 
790	 0,185818418088914 
791	 0,185359913140966 
792	 0,185054973462525 
793	 0,185504521164261 
794	 0,1853747434168 
795	 0,18495580410254 
796	 0,185365743347098 
797	 0,185639491136672 
798	 0,185535662767153 
799	 0,185515452941587 
800	 0,185619541241293 
801	 0,185841517093925 
802	 0,185797004527482 
803	 0,185589818005068 
804	 0,185661473799354 
805	 0,185842218672226 
806	 0,186023506953385 
807	 0,185925785505475 
808	 0,185864088037396 
809	 0,186167671192798 
810	 0,186131952414324 
811	 0,185840438514145 
812	 0,185920048220638 
813	 0,186113804929377 
814	 0,186326151404542 
815	 0,186631363273289 
816	 0,186860166795287 
817	 0,186822683053517 
818	 0,186862263038799 
819	 0,187004942777588 
820	 0,187100885378212 
821	 0,187024896344026 
822	 0,186788596494613 
823	 0,186880993293945 
824	 0,187116994760724 
825	 0,187196282375074 
826	 0,187409210262447 
827	 0,187705835117847 
828	 0,187757832565253 
829	 0,18766180599477 
830	 0,187520948358438 
831	 0,187660012557548 
832	 0,187883666802561 
833	 0,187879423849495 
834	 0,187633702277257 
835	 0,187384415623979 
836	 0,187961280264798 
837	 0,188276772331848 
838	 0,187831668294406 
839	 0,1876784909782 
840	 0,187693650238913 
841	 0,187535168665596 
842	 0,187415258724944 
843	 0,187461295188312 
844	 0,188035664487822 
845	 0,187981666229481 
846	 0,186968616218899 
847	 0,18752926405496 
848	 0,188640870370844 
849	 0,188489651241387 
850	 0,187856685996176 
851	 0,187139938812891 
852	 0,187005513509627 
853	 0,18683739636716 
854	 0,186491318922942 
855	 0,187443327171916 
856	 0,188540144158949 
857	 0,188043949287791 
858	 0,187250760138184 
859	 0,186766837281048 
860	 0,18745736528068 
861	 0,187933889771557 
862	 0,187506081888185 
863	 0,186919995125369 
864	 0,186487954688422 
865	 0,18650250014253 
866	 0,187311164577451 
867	 0,188333220914771 
868	 0,187550440409152 
869	 0,187260866929908 
870	 0,188253035641325 
871	 0,18809708764575 
872	 0,187436923324344 
873	 0,187312720289029 
874	 0,187640497055208 
875	 0,188105402959954 
876	 0,187772432098457 
877	 0,187703260720131 
878	 0,188189213890303 
879	 0,188068128778642 
880	 0,188067547160256 
881	 0,188967374460245 
882	 0,188862496336724 
883	 0,188011502131005 
884	 0,188074823785392 
885	 0,188403976927723 
886	 0,188710888810845 
887	 0,188651379488257 
888	 0,188387956185762 
889	 0,188153830762909 
890	 0,188636712782391 
891	 0,189337494427527 
892	 0,188877208827908 
893	 0,188648029448507 
894	 0,188880976836109 
895	 0,18847056843773 
896	 0,18795234174281 
897	 0,187832124551113 
898	 0,188568821605434 
899	 0,189277026420113 
900	 0,188239513243179 
901	 0,188254082197222 
902	 0,189460692626003 
903	 0,189268826954413 
904	 0,188433443053299 
905	 0,187621868472974 
906	 0,187972748078171 
907	 0,188648281121754 
908	 0,188266857329057 
909	 0,187593846985289 
910	 0,187096481425722 
911	 0,187607033918636 
912	 0,188243882084737 
913	 0,188473143326793 
914	 0,18804547995155 
915	 0,187263213965785 
916	 0,186546677498216 
917	 0,186865415366403 
918	 0,187523017084693 
919	 0,186123130441578 
920	 0,185543727885258 
921	 0,186397088197792 
922	 0,186520089853037 
923	 0,186010492554673 
924	 0,185161802780169 
925	 0,185278762310214 
926	 0,185906151522971 
927	 0,185846571253837 
928	 0,185353331011668 
929	 0,184691179439946 
930	 0,184740770415957 
931	 0,184174103126155 
932	 0,182533609645261 
933	 0,182359586273356 
934	 0,182790763208537 
935	 0,182384040098289 
936	 0,182390863083289 
937	 0,182393828009837 
938	 0,180354589796458 
939	 0,179276732356886 
940	 0,179833645764835 
941	 0,179030554046581 
942	 0,177888736773418 
943	 0,177415776173147 
944	 0,176768109519009 
945	 0,175875851284652 
946	 0,174800261952664 
947	 0,174855428260632 
948	 0,175403375885973 
949	 0,172703091580512 
950	 0,16995083679454 
951	 0,168970683240121 
952	 0,168341326755664 
953	 0,168421490572711 
954	 0,169605904392389 
955	 0,167971624682247 
956	 0,164440617754936 
957	 0,163348476594079 
958	 0,163801278495781 
959	 0,165019278309714 
960	 0,164565597490675 
961	 0,163810636863002 
962	 0,163637390910405 
963	 0,16150177170573 
964	 0,159335898042837 
965	 0,160487436171731 
966	 0,163056963739814 
967	 0,164920706508863 
968	 0,161075660051271 
969	 0,158831242709071 
970	 0,16060974254432 
971	 0,160584278992881 
972	 0,159815017522703 
973	 0,159557315246063 
974	 0,158839355346561 
975	 0,158706801366895 
976	 0,161241119528987 
977	 0,162209720439792 
978	 0,161239068403817 
979	 0,161443607412378 
980	 0,161849244998584 
981	 0,161963647725156 
982	 0,161656199588025 
983	 0,161315411528971 
984	 0,161364259988806 
985	 0,161917893129098 
986	 0,162352012079991 
987	 0,161422335354618 
988	 0,161245176520493 
989	 0,161725737213136 
990	 0,159831140983813 
991	 0,159726607928196 
992	 0,162765030075989 
993	 0,163104568832648 
994	 0,162277485947333 
995	 0,162321079242391 
996	 0,161453315274696 
997	 0,160864342472445 
998	 0,163426473119715 
999	 0,164241884349137 
1000	 0,162818739205785 
1001	 0,162591860133694 
1002	 0,163968313782983 
1003	 0,166490103705601 
1004	 0,165964160084761 
1005	 0,16541823399962 
1006	 0,167907892346548 
1007	 0,170306688741844 
1008	 0,171567574885063 
1009	 0,17090389209014 
1010	 0,169545670123513 
1011	 0,168306548505512 
1012	 0,168091602523561 
1013	 0,169117534392001 
1014	 0,171027452929943 
1015	 0,171846413045985 
1016	 0,171471614064405 
1017	 0,17013422570169 
1018	 0,169908058936269 
1019	 0,169271766962546 
1020	 0,16563556422698 
1021	 0,165918704848349 
1022	 0,170064788800984 
1023	 0,173467623113858 
1024	 0,174471277623628 
1025	 0,173005157960298 
1026	 0,172369345716537 
1027	 0,17348497499254 
1028	 0,176406438686139 
1029	 0,17823487232149 
1030	 0,176563017221277 
1031	 0,169868819742486 
1032	 0,170424981655284 
1033	 0,175042119379102 
1034	 0,172159078522116 
1035	 0,174411763114302 
1036	 0,181087152951308 
1037	 0,177051019571803 
1038	 0,173805768316241 
1039	 0,17597157651583 
1040	 0,178493298534197 
1041	 0,178285679075309 
1042	 0,174088706120704 
1043	 0,175635202264732 
1044	 0,181858258532345 
1045	 0,188823247835832 
1046	 0,186703262040609 
1047	 0,179703182389271 
1048	 0,182638581750838 
1049	 0,189623937216009 
1050	 0,195248715993688 
1051	 0,186369917039142 
1052	 0,180110425569306 
1053	 0,183982549777552 
1054	 0,18476473219684 
1055	 0,182484453668467 
1056	 0,178974860380648 
1057	 0,185071410387152 
1058	 0,191312775584678 
1059	 0,182999542526701 
1060	 0,171858948311426 
1061	 0,166048565584286 
1062	 0,179204820230811 
1063	 0,182714108648992 
1064	 0,175193568514538 
1065	 0,18698238628056 
1066	 0,181979128268888 
1067	 0,154098050721934 
1068	 0,163593716769518 
1069	 0,183180085560801 
1070	 0,188817023544727 
1071	 0,17934702418634 
1072	 0,168344253758817 
1073	 0,171232265328295 
1074	 0,173294249160085 
1075	 0,173377123397446 
