Wavelength	SCO-GRA00236.asd
325	 0,234868465392133 
326	 5,37387735141476E-03 
327	-0,248224546061485 
328	-0,280270363900375 
329	-0,195963786125962 
330	-7,96031042546771E-02 
331	 5,06392959442069E-02 
332	 0,118993519191549 
333	 0,126627617807009 
334	 7,89335929249052E-02 
335	 2,92982565448288E-02 
336	 1,75796083624409E-02 
337	 9,91820515598106E-02 
338	 0,142644536661864 
339	 0,046636809921626 
340	 3,34093020760083E-03 
341	 2,75740443541654E-02 
342	 0,107168580921476 
343	 0,114323968748239 
344	 3,76314057525036E-02 
345	 5,02950523993021E-02 
346	 7,50551069867134E-02 
347	 3,56833934271401E-02 
348	 7,90493963208147E-03 
349	 7,45409444466757E-03 
350	 2,33482408252188E-02 
351	 5,01868065375328E-02 
352	 7,54128605002967E-02 
353	 0,041594681182756 
354	-6,77466712884612E-03 
355	-0,017788676818838 
356	 1,50871706277896E-02 
357	 6,30381646448089E-02 
358	 6,14094440356189E-02 
359	 4,74343076647879E-02 
360	 0,035378097102499 
361	-1,66405810097198E-03 
362	-2,85583784429834E-02 
363	-2,04288517058091E-04 
364	 2,68903453420548E-02 
365	 0,037992571123203 
366	 4,24692746157657E-02 
367	 3,26545830798798E-02 
368	 9,81190056899903E-03 
369	 2,94429186859208E-02 
370	 5,48672464980258E-02 
371	 1,14025673639661E-02 
372	-8,80735424865043E-03 
373	 1,14591889335791E-02 
374	 2,10243415291806E-02 
375	 3,12825011530844E-02 
376	 0,049978830265678 
377	 4,04568154782911E-02 
378	 1,71813134344132E-02 
379	 2,33503122892912E-02 
380	 2,65628390916428E-02 
381	 2,01985280885041E-02 
382	 2,48654189245454E-02 
383	 2,58174493668709E-02 
384	 9,31759621601898E-03 
385	 1,63884301697665E-03 
386	 5,36253640140781E-03 
387	 1,44126812167336E-02 
388	 2,32513318471811E-02 
389	 2,67437303464875E-02 
390	 1,92014462548695E-02 
391	 9,15731374582402E-03 
392	 7,56898308067834E-03 
393	 1,66233755751767E-02 
394	 3,07835927252179E-02 
395	 3,37904040317084E-02 
396	 3,53043962119673E-02 
397	 3,79145245477022E-02 
398	 2,14905906491946E-02 
399	 5,47165045860562E-03 
400	 2,12678108486877E-02 
401	 2,54790863175708E-02 
402	 1,52587728493777E-02 
403	 2,40815199163494E-02 
404	 3,10473372084948E-02 
405	 2,29631668408583E-02 
406	 1,86123081479983E-02 
407	 1,69370068060333E-02 
408	 8,48032052239244E-03 
409	 8,51850863140046E-03 
410	 1,65478537750103E-02 
411	 8,28454192950638E-03 
412	 2,41731216058767E-03 
413	 1,60416930467908E-02 
414	 1,92375607237878E-02 
415	 1,27188772437942E-02 
416	 1,12141634422121E-02 
417	 1,43259946754747E-02 
418	 2,08615404661764E-02 
419	 0,023578203657133 
420	 2,15722319603153E-02 
421	 1,47167158607875E-02 
422	 0,012696626287242 
423	 1,54565805856059E-02 
424	 1,45100453073507E-02 
425	 1,31859575880756E-02 
426	 1,36198563355796E-02 
427	 1,58840730782627E-02 
428	 1,79740957193423E-02 
429	 1,64724083303079E-02 
430	 1,35112189029391E-02 
431	 1,10728436002384E-02 
432	 1,42163928994076E-02 
433	 1,80256958163358E-02 
434	 1,80298310899444E-02 
435	 1,64953795853557E-02 
436	 1,41404597905111E-02 
437	 1,09182685950762E-02 
438	 1,13800090970202E-02 
439	 1,59454783794378E-02 
440	 1,47420747934251E-02 
441	 1,19209705463427E-02 
442	 1,37929870877458E-02 
443	 1,31756056612818E-02 
444	 0,010688059757715 
445	 1,44777783391305E-02 
446	 0,016462655767082 
447	 1,23510393296626E-02 
448	 1,15674539586206E-02 
449	 1,29197148462147E-02 
450	 1,18381397385163E-02 
451	 9,71283651438085E-03 
452	 7,85582687539937E-03 
453	 1,00113764953426E-02 
454	 1,36773672821952E-02 
455	 1,63026741231074E-02 
456	 1,70070343873109E-02 
457	 1,64487558987913E-02 
458	 1,74678907274891E-02 
459	 1,57773168815341E-02 
460	 1,07614044939529E-02 
461	 1,02306191232388E-02 
462	 1,23221667183731E-02 
463	 1,34689922042221E-02 
464	 1,51509670019747E-02 
465	 1,65429092527994E-02 
466	 1,37295850555213E-02 
467	 1,25785561380734E-02 
468	 1,63046982433207E-02 
469	 1,64861002416597E-02 
470	 0,01402743662919 
471	 1,29887716167059E-02 
472	 1,36014251083159E-02 
473	 0,015514543266752 
474	 1,63569815541523E-02 
475	 1,53846902388436E-02 
476	 1,22156325123742E-02 
477	 0,010805263399677 
478	 1,18635401470979E-02 
479	 1,53493911443709E-02 
480	 1,56552331431157E-02 
481	 1,12820396228836E-02 
482	 1,21255997690163E-02 
483	 1,56428195072122E-02 
484	 1,66263364527519E-02 
485	 1,46882807567453E-02 
486	 1,11168086639047E-02 
487	 1,12155924031505E-02 
488	 1,30445073715222E-02 
489	 1,47821647851289E-02 
490	 1,43141718746234E-02 
491	 1,26671696769912E-02 
492	 1,32256134524761E-02 
493	 1,29332474735863E-02 
494	 1,11793882295175E-02 
495	 1,03033044483803E-02 
496	 1,04094531232764E-02 
497	 0,011377151435454 
498	 1,37639518819037E-02 
499	 1,59206765128766E-02 
500	 1,24402284330488E-02 
501	 1,02030482849192E-02 
502	 1,25515008966601E-02 
503	 1,21414148458744E-02 
504	 1,03544872496135E-02 
505	 1,12272571374393E-02 
506	 1,23890194303945E-02 
507	 1,31117557629146E-02 
508	 1,34548224371596E-02 
509	 1,35080227092231E-02 
510	 1,33900511146227E-02 
511	 0,013747979274893 
512	 1,40623170166522E-02 
513	 1,25295272317741E-02 
514	 1,15212451928895E-02 
515	 1,19765249544481E-02 
516	 1,24919945323606E-02 
517	 0,012938149495934 
518	 1,33691321502132E-02 
519	 1,36133407439086E-02 
520	 1,36306843018353E-02 
521	 1,34637158796674E-02 
522	 1,32930747992594E-02 
523	 0,013234406469905 
524	 1,29881204963546E-02 
525	 1,27204310396646E-02 
526	 1,29080222049927E-02 
527	 1,30919772748352E-02 
528	 1,31035325488164E-02 
529	 1,30639776760604E-02 
530	 1,27730868602308E-02 
531	 1,20120420019951E-02 
532	 1,19641612313944E-02 
533	 1,24858173493872E-02 
534	 1,21976864694248E-02 
535	 1,19572928412285E-02 
536	 1,22368126846415E-02 
537	 1,25829760620726E-02 
538	 1,27071410248627E-02 
539	 1,21379466103425E-02 
540	 1,21276568233963E-02 
541	 1,27691892510278E-02 
542	 1,24428812740036E-02 
543	 1,21001109289356E-02 
544	 1,27087971175857E-02 
545	 1,33499614963726E-02 
546	 0,013610514454282 
547	 1,27945858377235E-02 
548	 0,012464480265426 
549	 1,32721574278246E-02 
550	 1,39220363237953E-02 
551	 1,39269993848194E-02 
552	 1,27457342365491E-02 
553	 0,012259267214198 
554	 1,27520476686103E-02 
555	 1,28867787257424E-02 
556	 1,28254485544208E-02 
557	 1,27283199317912E-02 
558	 1,25817109062321E-02 
559	 1,24037716707749E-02 
560	 1,21636327319151E-02 
561	 1,22040361444306E-02 
562	 1,25771593546937E-02 
563	 1,26894061600436E-02 
564	 1,25884454938509E-02 
565	 1,24199402668736E-02 
566	 1,20183899994964E-02 
567	 1,16615863078169E-02 
568	 1,23901400325601E-02 
569	 1,32352538028449E-02 
570	 0,013463533252844 
571	 1,30802356458198E-02 
572	 1,25439929454043E-02 
573	 1,28095121073707E-02 
574	 1,32489215060013E-02 
575	 1,35815901216201E-02 
576	 1,35698905231889E-02 
577	 1,34413219694157E-02 
578	 0,013482910073804 
579	 1,41052248906932E-02 
580	 1,49509623446796E-02 
581	 1,45914164545763E-02 
582	 1,43353200962792E-02 
583	 1,48341476405565E-02 
584	 1,48061266208693E-02 
585	 1,46706406742556E-02 
586	 1,54909094009172E-02 
587	 1,59187879773739E-02 
588	 1,56597447213975E-02 
589	 1,53596071105257E-02 
590	 1,52722732300502E-02 
591	 1,55929811201213E-02 
592	 1,59899511353185E-02 
593	 1,62917926624299E-02 
594	 1,63658649849585E-02 
595	 1,58522611855479E-02 
596	 0,014870298838487 
597	 1,53368978002135E-02 
598	 0,01637349860724 
599	 0,016387970008151 
600	 1,62574993919059E-02 
601	 1,60450386337179E-02 
602	 1,50801086966567E-02 
603	 1,42699486714419E-02 
604	 1,43191346344142E-02 
605	 1,45540630345966E-02 
606	 0,014705704464453 
607	 1,44022234339389E-02 
608	 0,014275220838811 
609	 1,45146145688258E-02 
610	 1,47333408223877E-02 
611	 1,46604377024219E-02 
612	 1,40191036310485E-02 
613	 1,40683065855053E-02 
614	 1,47733145246658E-02 
615	 1,49574377271938E-02 
616	 1,47818171718294E-02 
617	 1,44055657847652E-02 
618	 1,43278867864687E-02 
619	 1,44871375375956E-02 
620	 0,014650549938488 
621	 1,43589288090653E-02 
622	 1,36599436893424E-02 
623	 1,35632605954869E-02 
624	 1,38457480911415E-02 
625	 1,41989857813192E-02 
626	 1,43655297596487E-02 
627	 1,43138390228557E-02 
628	 1,41783531850823E-02 
629	 1,40212822210005E-02 
630	 0,013956023320945 
631	 1,43559678840239E-02 
632	 1,51323545847355E-02 
633	 1,61435381585963E-02 
634	 1,60408417352898E-02 
635	 1,49840472864951E-02 
636	 1,54847420505769E-02 
637	 1,60144417090267E-02 
638	 1,53253135406669E-02 
639	 1,54441520958761E-02 
640	 1,63790550441062E-02 
641	 1,74083273137779E-02 
642	 1,74814627875079E-02 
643	 1,64682526419321E-02 
644	 1,67105131857475E-02 
645	 1,75203017693998E-02 
646	 1,77208626485258E-02 
647	 1,76302470802095E-02 
648	 1,73492324478444E-02 
649	 1,70259599005132E-02 
650	 1,67232547017938E-02 
651	 1,65174849125043E-02 
652	 0,016662340280587 
653	 1,68955249921845E-02 
654	 1,66178637498435E-02 
655	 1,63874717399058E-02 
656	 1,62981109624399E-02 
657	 1,58574104495096E-02 
658	 1,53601674489951E-02 
659	 1,51308376300775E-02 
660	 1,48474582677861E-02 
661	 1,45176138886636E-02 
662	 1,43029008868562E-02 
663	 0,014369827020255 
664	 1,47307622301659E-02 
665	 1,49041823895525E-02 
666	 1,47212946069161E-02 
667	 1,40233693029131E-02 
668	 1,33760467286056E-02 
669	 1,29718133827387E-02 
670	 1,27121362608872E-02 
671	 1,26611708885192E-02 
672	 1,28421698406664E-02 
673	 1,28953081861503E-02 
674	 1,29478212126643E-02 
675	 1,35458268833699E-02 
676	 1,38717862433975E-02 
677	 1,36569307089861E-02 
678	 1,33075460600169E-02 
679	 1,30033158209947E-02 
680	 1,29124074533936E-02 
681	 0,01331408593222 
682	 1,39896986809182E-02 
683	 1,40235925211263E-02 
684	 1,42050849469294E-02 
685	 0,014914284881213 
686	 1,52425776378751E-02 
687	 1,52661095840258E-02 
688	 1,52963383226102E-02 
689	 1,57185133587384E-02 
690	 1,65806439950876E-02 
691	 1,74164156077856E-02 
692	 1,82708596304757E-02 
693	 1,92361655948592E-02 
694	 2,07780531128703E-02 
695	 2,29062831483861E-02 
696	 2,53001434629437E-02 
697	 2,83622549587898E-02 
698	 3,22232954006513E-02 
699	 3,66380386873755E-02 
700	 4,13502930402439E-02 
701	 4,60610643321073E-02 
702	 5,15496648379072E-02 
703	 5,79097586171105E-02 
704	 6,47789713929268E-02 
705	 7,19131633425403E-02 
706	 7,91154223504588E-02 
707	 8,62094839819057E-02 
708	 9,33202077142029E-02 
709	 0,100725552336571 
710	 0,108480820472216 
711	 0,116406143217681 
712	 0,123741699970408 
713	 0,130895794234064 
714	 0,138228516321042 
715	 0,145194783116306 
716	 0,151808986568368 
717	 0,15847686183792 
718	 0,164556659279466 
719	 0,169903325493167 
720	 0,175388297552944 
721	 0,180853703622774 
722	 0,185992152609992 
723	 0,190647270112059 
724	 0,194857942147228 
725	 0,198916021631288 
726	 0,202723422905707 
727	 0,206180805220375 
728	 0,208983332147442 
729	 0,211364253175602 
730	 0,213747770773804 
731	 0,216474688682958 
732	 0,219376482283361 
733	 0,221183916892688 
734	 0,222737364736444 
735	 0,224769388819558 
736	 0,226412622897109 
737	 0,227713553849809 
738	 0,229182272257855 
739	 0,230450608806797 
740	 0,231433694439783 
741	 0,232419919857188 
742	 0,23338596134898 
743	 0,234278233369681 
744	 0,235267957043253 
745	 0,236234589106201 
746	 0,236694526240465 
747	 0,23710894765901 
748	 0,237728235713944 
749	 0,238394999617434 
750	 0,239029245043751 
751	 0,239535684051314 
752	 0,240052434997327 
753	 0,240574522399069 
754	 0,240953279961555 
755	 0,241192512573968 
756	 0,241345149929797 
757	 0,241862575714835 
758	 0,242534703264627 
759	 0,242833469100943 
760	 0,242767648870082 
761	 0,242496854152746 
762	 0,242726173482676 
763	 0,243220071503646 
764	 0,243697508238906 
765	 0,243956680768482 
766	 0,244028194594436 
767	 0,244101033160967 
768	 0,244292086620274 
769	 0,244598416545581 
770	 0,244663920563689 
771	 0,244572073828543 
772	 0,244466709873641 
773	 0,244727592645869 
774	 0,245220586531384 
775	 0,245239204320742 
776	 0,245323723294905 
777	 0,245657308267262 
778	 0,24546455942278 
779	 0,24512794338608 
780	 0,24532602075687 
781	 0,245227910876219 
782	 0,244923858145335 
783	 0,245561297711078 
784	 0,246075636787248 
785	 0,245824374931687 
786	 0,245738586013894 
787	 0,245929233793617 
788	 0,246380082247004 
789	 0,246482729985982 
790	 0,246105586656589 
791	 0,245502861149613 
792	 0,245435140626406 
793	 0,246330265681887 
794	 0,246000394983483 
795	 0,244949113519045 
796	 0,245030643332152 
797	 0,24533948300581 
798	 0,245545348009467 
799	 0,24550038204085 
800	 0,245264283896094 
801	 0,244945438736637 
802	 0,245105323290245 
803	 0,245506126861688 
804	 0,245202706117002 
805	 0,245220913339551 
806	 0,245765121290226 
807	 0,245774132627678 
808	 0,245650109065358 
809	 0,245886659510133 
810	 0,246065121488851 
811	 0,24614000130827 
812	 0,246245556200799 
813	 0,246195278024289 
814	 0,246024367540838 
815	 0,246391595698229 
816	 0,246906744947156 
817	 0,247045691245549 
818	 0,24701949624648 
819	 0,246915150528444 
820	 0,246803224188335 
821	 0,246973400278285 
822	 0,247469327163484 
823	 0,247554439111083 
824	 0,247580148460078 
825	 0,248080219102067 
826	 0,248086381027924 
827	 0,247749278585755 
828	 0,248366613404387 
829	 0,248571177014744 
830	 0,247897693925772 
831	 0,2483298717032 
832	 0,249101880839891 
833	 0,248900427563172 
834	 0,248750139948864 
835	 0,248794478872114 
836	 0,248636592333215 
837	 0,248638579056845 
838	 0,248929176446379 
839	 0,248937179497849 
840	 0,248870742450458 
841	 0,249108382902867 
842	 0,24933799433446 
843	 0,249462662383251 
844	 0,249465167319371 
845	 0,249331962361051 
846	 0,249109418565519 
847	 0,249112338438584 
848	 0,249279039531778 
849	 0,24946888640271 
850	 0,249329554810902 
851	 0,248841171003199 
852	 0,248227257342062 
853	 0,247830995720961 
854	 0,247900179869429 
855	 0,248653165020857 
856	 0,249288378749681 
857	 0,248729945260745 
858	 0,248339789532046 
859	 0,248328976695766 
860	 0,248188980686808 
861	 0,248066634280889 
862	 0,248034631891719 
863	 0,248121178093758 
864	 0,248129228324435 
865	 0,247816975516801 
866	 0,24811601537318 
867	 0,248759393595564 
868	 0,248125430618898 
869	 0,248206651140476 
870	 0,249540121574162 
871	 0,249192351374843 
872	 0,248287422697692 
873	 0,248480809875373 
874	 0,249033597732047 
875	 0,249637460140503 
876	 0,24984671460262 
877	 0,250103015002191 
878	 0,250471716210946 
879	 0,250156302941319 
880	 0,250058420596986 
881	 0,2511047385687 
882	 0,251256183032039 
883	 0,250631396134571 
884	 0,250636786754358 
885	 0,250767270162408 
886	 0,250881274497918 
887	 0,250946499397828 
888	 0,251324328493698 
889	 0,252234784715911 
890	 0,252050483052518 
891	 0,251201049370144 
892	 0,251260923808276 
893	 0,251516027965731 
894	 0,251674717838365 
895	 0,251404807485236 
896	 0,251154963803938 
897	 0,251269185584102 
898	 0,251378165175579 
899	 0,251488284763959 
900	 0,251717242218849 
901	 0,251933124317269 
902	 0,251918733723776 
903	 0,251000059361628 
904	 0,250355707665981 
905	 0,250691398280098 
906	 0,251296509783775 
907	 0,251767626448806 
908	 0,251690572774117 
909	 0,250944497208564 
910	 0,250001037234586 
911	 0,250326340748115 
912	 0,250896928926532 
913	 0,251117997713483 
914	 0,250661715138074 
915	 0,250084981319726 
916	 0,250008373086477 
917	 0,249605569099801 
918	 0,248852627753321 
919	 0,248015152046208 
920	 0,247715406394612 
921	 0,24798670137813 
922	 0,247798006779692 
923	 0,247263219181252 
924	 0,246597044583087 
925	 0,246484820036877 
926	 0,24685945759944 
927	 0,247444403002107 
928	 0,246666980024612 
929	 0,244822134307314 
930	 0,244958161799694 
931	 0,244373553420353 
932	 0,241916987891474 
933	 0,241221420654933 
934	 0,241606174357381 
935	 0,241642176902932 
936	 0,240614455373883 
937	 0,238969816092273 
938	 0,23861145902585 
939	 0,237918690907628 
940	 0,236481478282391 
941	 0,23549721557384 
942	 0,234628582584186 
943	 0,233555971288549 
944	 0,232779865283529 
945	 0,231997106095706 
946	 0,230526721783725 
947	 0,229162899287165 
948	 0,227965638753403 
949	 0,226304096243491 
950	 0,224543450085771 
951	 0,222845763196372 
952	 0,220642936332428 
953	 0,219045249195959 
954	 0,219282215680698 
955	 0,21820844734108 
956	 0,215805176797614 
957	 0,213664461115312 
958	 0,212679215633347 
959	 0,213041509397821 
960	 0,213873630542473 
961	 0,213396018249706 
962	 0,210668609345577 
963	 0,209492841494417 
964	 0,209154410738586 
965	 0,207699131740296 
966	 0,207647937897847 
967	 0,208552900269886 
968	 0,207151042975903 
969	 0,206101458855384 
970	 0,206205875450803 
971	 0,204938182990085 
972	 0,204880633449332 
973	 0,20794741429958 
974	 0,207280260494994 
975	 0,204889644164775 
976	 0,206491588432832 
977	 0,20628268856984 
978	 0,204313829151694 
979	 0,206185722118293 
980	 0,208459327692645 
981	 0,20924970732917 
982	 0,208432955678573 
983	 0,207614367436211 
984	 0,208337886089856 
985	 0,208720773470916 
986	 0,208349053443164 
987	 0,207034633846718 
988	 0,207250547600751 
989	 0,2087512240873 
990	 0,20749272581643 
991	 0,207798963236749 
992	 0,210919200136115 
993	 0,209851895188309 
994	 0,208190789800011 
995	 0,210018964872038 
996	 0,211559908505681 
997	 0,211846633443165 
998	 0,210252774063604 
999	 0,210186445532097 
1000	 0,211906906183583 
1001	 0,21223295185685 
1002	 0,213375285133374 
1003	 0,215824702001752 
1004	 0,216261128114671 
1005	 0,214778416374194 
1006	 0,212350218959444 
1007	 0,215656598496573 
1008	 0,220659269711186 
1009	 0,218242292425966 
1010	 0,218620548955502 
1011	 0,221754832662619 
1012	 0,218004214294679 
1013	 0,217386974023013 
1014	 0,222503089110271 
1015	 0,222499368717856 
1016	 0,220865455451083 
1017	 0,221014163466407 
1018	 0,221660581466469 
1019	 0,222363953347418 
1020	 0,222654433589153 
1021	 0,221223215945003 
1022	 0,219921468783267 
1023	 0,224791374313258 
1024	 0,228168446959479 
1025	 0,227843127260528 
1026	 0,226831117299712 
1027	 0,227171244599815 
1028	 0,229788602443218 
1029	 0,23167812365473 
1030	 0,231445423014645 
1031	 0,228154849967946 
1032	 0,225044771370953 
1033	 0,224240433382454 
1034	 0,22820446335936 
1035	 0,232155057299562 
1036	 0,233497672438707 
1037	 0,228480698036762 
1038	 0,227697838277628 
1039	 0,234131813606144 
1040	 0,235776793435196 
1041	 0,235294249336698 
1042	 0,234916233401239 
1043	 0,229165729922806 
1044	 0,226456789604311 
1045	 0,2378411350521 
1046	 0,241259167647686 
1047	 0,238536818558673 
1048	 0,245917078461788 
1049	 0,248364153440801 
1050	 0,243695904589121 
1051	 0,241884884117723 
1052	 0,24071031092138 
1053	 0,240031602536392 
1054	 0,24525595533447 
1055	 0,243501855449348 
1056	 0,227140159961731 
1057	 0,231659689503889 
1058	 0,244001025571842 
1059	 0,239201798543071 
1060	 0,234222539244754 
1061	 0,231566728522758 
1062	 0,229241561160954 
1063	 0,231693481642289 
1064	 0,238069364765786 
1065	 0,242119059865862 
1066	 0,238641234060366 
1067	 0,227286137634972 
1068	 0,218446311844948 
1069	 0,225621033496381 
1070	 0,251367890199777 
1071	 0,245046719057238 
1072	 0,229820745191704 
1073	 0,238250818523309 
1074	 0,238313314600153 
1075	 0,233728482944393 
