Wavelength	SCORFF200274.asd
325	 0,136984193443339 
326	 0,327640540815289 
327	 0,3428351241463 
328	 0,183916442285096 
329	 0,207870628328561 
330	 0,251249562255261 
331	 0,192925980373679 
332	 0,213377860904202 
333	 0,26708472135069 
334	 0,219664639815538 
335	 0,175196736681671 
336	 0,174256223436551 
337	 0,127147000605338 
338	 8,85062565225294E-02 
339	 0,141644561280895 
340	 0,180764063632874 
341	 0,179755081057104 
342	 0,113760225273222 
343	 0,148444196300188 
344	 0,267187175207837 
345	 0,227416424418605 
346	 0,147641199412371 
347	 0,150377609716219 
348	 0,175197355674904 
349	 0,201995631681803 
350	 0,221524959982132 
351	 0,216435067133025 
352	 0,188171215854634 
353	 0,180948015842703 
354	 0,184322807329044 
355	 0,184915999655062 
356	 0,193507755969695 
357	 0,202100999051843 
358	 0,186524244646907 
359	 0,183996242544027 
360	 0,20485438262118 
361	 0,193486251894716 
362	 0,177048104496514 
363	 0,20397068809416 
364	 0,211381346673786 
365	 0,199435190540068 
366	 0,216405750271666 
367	 0,231138595515071 
368	 0,223904793504449 
369	 0,192559714468747 
370	 0,164249303056218 
371	 0,193828308252017 
372	 0,202355633909273 
373	 0,18164822458821 
374	 0,196635925446983 
375	 0,213769665836967 
376	 0,209769465040088 
377	 0,210332835418362 
378	 0,215071274580034 
379	 0,215554314953838 
380	 0,212027085922678 
381	 0,206257344645554 
382	 0,208414747339042 
383	 0,21044086809581 
384	 0,204992840520615 
385	 0,198895406574385 
386	 0,19837169761967 
387	 0,217688898445468 
388	 0,226937741978672 
389	 0,215751445460375 
390	 0,199988999522465 
391	 0,191972390204496 
392	 0,205463754297261 
393	 0,2054211348186 
394	 0,194254297056524 
395	 0,204327706357077 
396	 0,211173383586952 
397	 0,204439007812382 
398	 0,199591200694189 
399	 0,199798928195374 
400	 0,207228406904514 
401	 0,204612861788455 
402	 0,192352629801973 
403	 0,187058211727161 
404	 0,192391258712933 
405	 0,207992496075018 
406	 0,211156618886215 
407	 0,207486292041822 
408	 0,215005180827312 
409	 0,219644288637292 
410	 0,218040692743482 
411	 0,215344022731886 
412	 0,208568224791593 
413	 0,195712124031111 
414	 0,197015917767706 
415	 0,207863307105075 
416	 0,208206385157147 
417	 0,206488780242853 
418	 0,20621798936876 
419	 0,207958738673611 
420	 0,209877794288794 
421	 0,209542068788204 
422	 0,208819993374179 
423	 0,208609687247878 
424	 0,21045206354931 
425	 0,211167877271062 
426	 0,20917441044536 
427	 0,208367731763968 
428	 0,208261114414611 
429	 0,206605760302994 
430	 0,208646071809155 
431	 0,213401029979303 
432	 0,209933353662143 
433	 0,206122237516817 
434	 0,208860414890922 
435	 0,208784913742518 
436	 0,206464849305876 
437	 0,207600952074052 
438	 0,20853956412247 
439	 0,208179653022367 
440	 0,209161850181334 
441	 0,210021752476799 
442	 0,208693397713094 
443	 0,208077993623017 
444	 0,208819003034546 
445	 0,210700651379961 
446	 0,211768430675243 
447	 0,210903994565864 
448	 0,209535437052541 
449	 0,209409118951507 
450	 0,213444092913686 
451	 0,215954815875059 
452	 0,215382526210099 
453	 0,213891096227343 
454	 0,212548779589717 
455	 0,212257585442871 
456	 0,212725214173383 
457	 0,213565291117264 
458	 0,21399794053895 
459	 0,214273406597714 
460	 0,214488401402072 
461	 0,21498067740055 
462	 0,214568874032774 
463	 0,211671034350326 
464	 0,210768507179281 
465	 0,212252812549076 
466	 0,213056864408028 
467	 0,214006974736938 
468	 0,21551596583612 
469	 0,216597408823634 
470	 0,217170149594211 
471	 0,217399613388891 
472	 0,217012432689361 
473	 0,216408392305592 
474	 0,217664614863396 
475	 0,219066744820001 
476	 0,218814423620152 
477	 0,216694327404563 
478	 0,214062503743162 
479	 0,214771398254471 
480	 0,214747470415939 
481	 0,212829316366329 
482	 0,215053390489265 
483	 0,218497241181063 
484	 0,218076601701162 
485	 0,217623692954859 
486	 0,217922923366306 
487	 0,217835792041874 
488	 0,218210550968416 
489	 0,219464124800556 
490	 0,218885789984156 
491	 0,21717566603579 
492	 0,217058067737628 
493	 0,215954156046515 
494	 0,213770705402162 
495	 0,214708008524497 
496	 0,216175567707775 
497	 0,214995601474309 
498	 0,215937367380675 
499	 0,21850875820746 
500	 0,218033118879344 
501	 0,216973468648792 
502	 0,216821303464008 
503	 0,217537074663855 
504	 0,218692217852584 
505	 0,219518706243862 
506	 0,220639923093326 
507	 0,22190168997339 
508	 0,221996651562384 
509	 0,221878156555988 
510	 0,222388152599878 
511	 0,221910995711318 
512	 0,221019820769917 
513	 0,221854758525736 
514	 0,223115267351101 
515	 0,223998442141136 
516	 0,223315303286352 
517	 0,222325936299943 
518	 0,222879526261903 
519	 0,224381583233583 
520	 0,226207206125275 
521	 0,22685914186528 
522	 0,226886180699414 
523	 0,226743503093979 
524	 0,226508566069357 
525	 0,226370690850943 
526	 0,226680045603243 
527	 0,226830302711666 
528	 0,226656952194456 
529	 0,226600783046638 
530	 0,226494234268056 
531	 0,226113719540676 
532	 0,225117527007295 
533	 0,224100788401996 
534	 0,225110192992782 
535	 0,226118148494145 
536	 0,225924572919452 
537	 0,225289380478162 
538	 0,224740116958378 
539	 0,225029619344144 
540	 0,225303893410246 
541	 0,225385560994758 
542	 0,22574428637466 
543	 0,226389874067212 
544	 0,227270231392561 
545	 0,227471126211051 
546	 0,2272388858334 
547	 0,227878917266482 
548	 0,228209503031229 
549	 0,227842576878653 
550	 0,228265746913169 
551	 0,229149835482265 
552	 0,229761337147135 
553	 0,22991398603191 
554	 0,229567725972037 
555	 0,228881333910214 
556	 0,22841400114269 
557	 0,228544969600162 
558	 0,227879559485722 
559	 0,226902257801073 
560	 0,227574661440831 
561	 0,227662445702 
562	 0,226523657912358 
563	 0,226204305226252 
564	 0,22615339510722 
565	 0,22539470220554 
566	 0,225470106935237 
567	 0,226501080589205 
568	 0,227568494375658 
569	 0,228260771503857 
570	 0,228346569025078 
571	 0,22863237249971 
572	 0,229361082258415 
573	 0,230751258101979 
574	 0,232160660508558 
575	 0,233372492208389 
576	 0,234841584618633 
577	 0,23597413036501 
578	 0,236119450944176 
579	 0,236493530151325 
580	 0,237441885813852 
581	 0,239115610993479 
582	 0,240383203326526 
583	 0,240704067485593 
584	 0,241445880119743 
585	 0,242747490749562 
586	 0,244624229156131 
587	 0,245348585691334 
588	 0,244994777579392 
589	 0,246530425816282 
590	 0,2483767339372 
591	 0,248994889321928 
592	 0,250064060341078 
593	 0,251276311062668 
594	 0,250868561606819 
595	 0,250640893553937 
596	 0,251301684957699 
597	 0,251435280365928 
598	 0,251275375731889 
599	 0,251394730998893 
600	 0,251385863527536 
601	 0,251148172539099 
602	 0,250703426866382 
603	 0,250295521570218 
604	 0,250109434748857 
605	 0,249987763554602 
606	 0,249727223688626 
607	 0,248896876425486 
608	 0,248124716874307 
609	 0,247567475384941 
610	 0,246463170237984 
611	 0,245601840208125 
612	 0,245996649573924 
613	 0,245617177843353 
614	 0,244408865384986 
615	 0,243903464410043 
616	 0,243862944201377 
617	 0,244067119824107 
618	 0,243868571313321 
619	 0,243565603547828 
620	 0,244017957330741 
621	 0,244026734813027 
622	 0,243449739892958 
623	 0,243647694330546 
624	 0,243958883846915 
625	 0,243651764772374 
626	 0,24361252837526 
627	 0,243838416156926 
628	 0,243716520287469 
629	 0,243817070005102 
630	 0,244370246851653 
631	 0,244739886537831 
632	 0,245115375368756 
633	 0,245926883254472 
634	 0,246783083310611 
635	 0,247529402889884 
636	 0,248043982742377 
637	 0,248614915831671 
638	 0,249493412845297 
639	 0,250592414913609 
640	 0,251741201981419 
641	 0,252547153466318 
642	 0,253530372046502 
643	 0,254712802195207 
644	 0,254918081110193 
645	 0,254878321859782 
646	 0,255672153343769 
647	 0,256022588993131 
648	 0,255701821514727 
649	 0,255186695075565 
650	 0,254227956814614 
651	 0,252750956112452 
652	 0,251527590908389 
653	 0,250557227487017 
654	 0,24955308899225 
655	 0,248769066480835 
656	 0,248089389661567 
657	 0,246741311966703 
658	 0,2449038221334 
659	 0,242840556603008 
660	 0,240961030790601 
661	 0,239458361352591 
662	 0,238613789919593 
663	 0,237358954102053 
664	 0,235308845525752 
665	 0,233978851799039 
666	 0,23327050091503 
667	 0,232750620822729 
668	 0,232021773157873 
669	 0,231058168896402 
670	 0,230342686296217 
671	 0,229824751545898 
672	 0,229477875946433 
673	 0,22962590151953 
674	 0,229983552182222 
675	 0,229796240987804 
676	 0,229504752954073 
677	 0,229294938279975 
678	 0,22920264252205 
679	 0,22941926721496 
680	 0,230145179064022 
681	 0,230465506175994 
682	 0,230587150384243 
683	 0,231895599030719 
684	 0,233388512869103 
685	 0,234524220145925 
686	 0,235953612070993 
687	 0,237982461902472 
688	 0,241027914863503 
689	 0,243867891796562 
690	 0,246528025840211 
691	 0,250788712507067 
692	 0,256022906413529 
693	 0,261627016605477 
694	 0,268158759599958 
695	 0,275537802953025 
696	 0,283359520687782 
697	 0,291754974082575 
698	 0,300782797941648 
699	 0,310471030326796 
700	 0,320779132711368 
701	 0,331671320607179 
702	 0,342446204049155 
703	 0,352912455371408 
704	 0,363295399678609 
705	 0,373538848163315 
706	 0,383578237173024 
707	 0,393322219656457 
708	 0,402542820603326 
709	 0,410803810930972 
710	 0,418775266491434 
711	 0,4266995133122 
712	 0,434520957511204 
713	 0,441760656821502 
714	 0,448021912372636 
715	 0,45418749311797 
716	 0,460215725703341 
717	 0,465600424294091 
718	 0,470261988220739 
719	 0,474250745560256 
720	 0,478111547585431 
721	 0,481852962030164 
722	 0,485413594653793 
723	 0,488819716867497 
724	 0,491943632475647 
725	 0,494390919052033 
726	 0,49644515391927 
727	 0,498362846379716 
728	 0,500627137104448 
729	 0,502893150517871 
730	 0,504431329055881 
731	 0,505745492696713 
732	 0,507006725726121 
733	 0,508210027051235 
734	 0,509491458009282 
735	 0,510927877471814 
736	 0,511953762209014 
737	 0,512746451737563 
738	 0,514080164485784 
739	 0,515049119008171 
740	 0,515410753792185 
741	 0,515867482905267 
742	 0,516450133667008 
743	 0,517118465549317 
744	 0,517610962107577 
745	 0,51796076756417 
746	 0,518475670354166 
747	 0,518992867382087 
748	 0,519421389016569 
749	 0,519747281636823 
750	 0,52005656140409 
751	 0,520470470742716 
752	 0,521157553665188 
753	 0,522026654055008 
754	 0,522594944768779 
755	 0,522995674074689 
756	 0,523324592162715 
757	 0,523396038133911 
758	 0,523595946150825 
759	 0,524769160739233 
760	 0,525739208171545 
761	 0,526132974126516 
762	 0,526247069382648 
763	 0,526535190823563 
764	 0,527373805998578 
765	 0,528033545969155 
766	 0,528432382305207 
767	 0,528753547029083 
768	 0,529063451929166 
769	 0,529400467441236 
770	 0,52975271380791 
771	 0,530015633506704 
772	 0,530073014884308 
773	 0,530114624346588 
774	 0,530239479139887 
775	 0,53062594051798 
776	 0,530820423162363 
777	 0,530634851315186 
778	 0,530620399904885 
779	 0,530610579898746 
780	 0,530265985404125 
781	 0,53012381622084 
782	 0,530257206791293 
783	 0,530367080742761 
784	 0,530483547559194 
785	 0,530616847155785 
786	 0,530717625114608 
787	 0,530810190352393 
788	 0,530950701967364 
789	 0,531076237397358 
790	 0,531223362920191 
791	 0,531640265025393 
792	 0,531942431582159 
793	 0,531889048573539 
794	 0,532426722832 
795	 0,533229360060578 
796	 0,53326515234302 
797	 0,533296427452555 
798	 0,533580576309212 
799	 0,534055219563868 
800	 0,534550800599956 
801	 0,534893312831469 
802	 0,534928754601066 
803	 0,534800510316937 
804	 0,534904689347908 
805	 0,535170821714454 
806	 0,535571160367695 
807	 0,536067361377816 
808	 0,536373204686985 
809	 0,53621504185424 
810	 0,536078711270196 
811	 0,536142695016175 
812	 0,536652454606255 
813	 0,536712941232268 
814	 0,536133987808394 
815	 0,5362971672252 
816	 0,536812359185636 
817	 0,537064310749991 
818	 0,536899331085634 
819	 0,536586067891838 
820	 0,537054801618394 
821	 0,537575966861798 
822	 0,537844060930029 
823	 0,538360851872979 
824	 0,538717571029898 
825	 0,53836334017284 
826	 0,538796834546532 
827	 0,539787636376517 
828	 0,539344762743103 
829	 0,539209598960785 
830	 0,540089890521405 
831	 0,540204918547564 
832	 0,540042012819517 
833	 0,540511621400366 
834	 0,541350191565073 
835	 0,542178526407341 
836	 0,541986169517642 
837	 0,541810364757736 
838	 0,542210709788562 
839	 0,542777168021255 
840	 0,543148832568611 
841	 0,542900268231676 
842	 0,542685537138921 
843	 0,542623477666355 
844	 0,542464612855186 
845	 0,542347652954009 
846	 0,542360870604717 
847	 0,54257658580923 
848	 0,542737789203085 
849	 0,542488225801113 
850	 0,542166516978873 
851	 0,541948040134355 
852	 0,542183381605306 
853	 0,541908145114501 
854	 0,540799549053585 
855	 0,540408444954833 
856	 0,540802737756057 
857	 0,54179884750343 
858	 0,541908253748098 
859	 0,541073444188365 
860	 0,540414377649796 
861	 0,540098573689107 
862	 0,540274200819441 
863	 0,540989942446427 
864	 0,541677193744776 
865	 0,541630246661321 
866	 0,541614129927916 
867	 0,541882311275271 
868	 0,542645899760776 
869	 0,543178555881739 
870	 0,543212822077 
871	 0,543530306946605 
872	 0,543944721923589 
873	 0,544158876981795 
874	 0,54471644235645 
875	 0,545500196101991 
876	 0,545811610869852 
877	 0,546293753917991 
878	 0,547081576861114 
879	 0,547288062483003 
880	 0,547566149340477 
881	 0,548603999758308 
882	 0,548627471112534 
883	 0,547960806672317 
884	 0,548411422163557 
885	 0,548766965069759 
886	 0,548789263531545 
887	 0,549518367439717 
888	 0,550177662592239 
889	 0,550017552046548 
890	 0,549645068883936 
891	 0,549351704610759 
892	 0,549474648026606 
893	 0,549882013065318 
894	 0,550322481713367 
895	 0,550022875685651 
896	 0,549439025864314 
897	 0,548970716243889 
898	 0,548532106815778 
899	 0,548241702810583 
900	 0,548321593842365 
901	 0,547914833537627 
902	 0,547146215802932 
903	 0,547492768050814 
904	 0,547757630700932 
905	 0,547287248907799 
906	 0,547262148189642 
907	 0,547304234182717 
908	 0,54669666604718 
909	 0,546373902808486 
910	 0,546582313934016 
911	 0,547513246336641 
912	 0,547383123374228 
913	 0,54574476202938 
914	 0,545387770214316 
915	 0,546107474133763 
916	 0,547285942077645 
917	 0,547230881884926 
918	 0,546549894528148 
919	 0,547957994652575 
920	 0,548062239766892 
921	 0,546392205890985 
922	 0,546595625100338 
923	 0,547291491602196 
924	 0,547262246500462 
925	 0,54774473895945 
926	 0,548279077796013 
927	 0,547757083820492 
928	 0,547164484720981 
929	 0,546970397982944 
930	 0,547716750323508 
931	 0,548471917478301 
932	 0,548696702962063 
933	 0,549060506604623 
934	 0,549005822319713 
935	 0,547815529621142 
936	 0,547743003031507 
937	 0,548515638409486 
938	 0,547882952431384 
939	 0,547035263973002 
940	 0,54652150831079 
941	 0,546696881974061 
942	 0,547040363749243 
943	 0,547041124529349 
944	 0,546753313879715 
945	 0,546222339262976 
946	 0,545567691353955 
947	 0,544386638976479 
948	 0,542796914230082 
949	 0,541505737806954 
950	 0,54051407470339 
951	 0,539818192912809 
952	 0,539251413570984 
953	 0,538694975506251 
954	 0,538045379688716 
955	 0,537778211616829 
956	 0,537372181159196 
957	 0,53522413921626 
958	 0,533260550387718 
959	 0,532171930173253 
960	 0,531393101471441 
961	 0,531564976168169 
962	 0,532811682136216 
963	 0,532130630130703 
964	 0,530345420356264 
965	 0,529365707501207 
966	 0,529742766728376 
967	 0,530842871557666 
968	 0,530031481711274 
969	 0,529949118054913 
970	 0,531144751224637 
971	 0,530300607109328 
972	 0,528649907082027 
973	 0,527718208376958 
974	 0,529534518928871 
975	 0,531798251929363 
976	 0,529850703173861 
977	 0,528497236278508 
978	 0,528707456711841 
979	 0,5288765378794 
980	 0,529188359163928 
981	 0,529763179574829 
982	 0,531094332303966 
983	 0,531902850489293 
984	 0,531141464665616 
985	 0,532461602667516 
986	 0,534885766592708 
987	 0,535219770867711 
988	 0,535270554466326 
989	 0,535233361449059 
990	 0,533703774958599 
991	 0,53382852412465 
992	 0,536655802124813 
993	 0,537739870539296 
994	 0,537798546609805 
995	 0,53798681797907 
996	 0,537637072133544 
997	 0,537427042984069 
998	 0,538743943336749 
999	 0,540685794619131 
1000	 0,54215868223121 
1001	 0,540273988873578 
1002	 0,539207748363821 
1003	 0,540691486829479 
1004	 0,541089931538838 
1005	 0,541778179559744 
1006	 0,544068144845345 
1007	 0,544486277901895 
1008	 0,543831195279946 
1009	 0,544598252786022 
1010	 0,544278229114836 
1011	 0,54326144628176 
1012	 0,545046007155453 
1013	 0,545718592599775 
1014	 0,544558874192717 
1015	 0,547481923374698 
1016	 0,550317398763446 
1017	 0,549404292643111 
1018	 0,547569455650085 
1019	 0,546302288195249 
1020	 0,547096408891723 
1021	 0,546976771303011 
1022	 0,546223199400103 
1023	 0,547743937796071 
1024	 0,548641037686784 
1025	 0,548616208811188 
1026	 0,551181793002671 
1027	 0,552904057964567 
1028	 0,551755372831293 
1029	 0,550584431858953 
1030	 0,550789942708757 
1031	 0,553336530749102 
1032	 0,555031508995994 
1033	 0,554288979209881 
1034	 0,549163773292929 
1035	 0,551709554832559 
1036	 0,560725567622427 
1037	 0,558778519400624 
1038	 0,557406161450867 
1039	 0,559683950538045 
1040	 0,55293810306889 
1041	 0,546392556885562 
1042	 0,547904774389813 
1043	 0,550369388597768 
1044	 0,552551133238518 
1045	 0,55404438562021 
1046	 0,556278801556702 
1047	 0,559993923800663 
1048	 0,566076768507824 
1049	 0,567193726818919 
1050	 0,563735005049271 
1051	 0,566543034757568 
1052	 0,567703939133503 
1053	 0,564318660668527 
1054	 0,564673565819793 
1055	 0,559740527697992 
1056	 0,545255507668835 
1057	 0,55288813044229 
1058	 0,57025116985548 
1059	 0,572458577011926 
1060	 0,559421640904793 
1061	 0,542347006149907 
1062	 0,545470581285926 
1063	 0,552071757521674 
1064	 0,557180725601016 
1065	 0,562095678095426 
1066	 0,566562147495812 
1067	 0,568564636490226 
1068	 0,558333480496238 
1069	 0,55275576029476 
1070	 0,562010242711422 
1071	 0,553110849870953 
1072	 0,538183178091721 
1073	 0,535843506191201 
1074	 0,550508750663134 
1075	 0,565414694745968 
