Wavelength	SCORFF200011.asd
325	 0,161347117996285 
326	 0,146551285961167 
327	 0,113637638666206 
328	 0,072107884357844 
329	 0,118572557759838 
330	 0,137555927247437 
331	 4,81435410305703E-02 
332	-1,32416662391149E-02 
333	-1,72668657269561E-02 
334	 2,64513369779464E-03 
335	 0,12626251405262 
336	 0,254595295920433 
337	 0,2199846994292 
338	 6,99541916760782E-02 
339	-0,100983226380329 
340	-5,98850599223781E-02 
341	 8,16652481869321E-02 
342	 9,67837111072723E-02 
343	 7,71526007684678E-02 
344	 5,62898987459493E-02 
345	 4,48866733284884E-02 
346	 5,11105896640039E-02 
347	 8,17680235798522E-02 
348	 0,068957208706761 
349	 3,13093459018278E-02 
350	 3,11953244239288E-02 
351	 5,27640753695137E-02 
352	 0,078017128748898 
353	 7,07481764919664E-02 
354	 5,07378866509979E-02 
355	 4,13847709687282E-02 
356	 7,19109453545505E-02 
357	 0,113520520029032 
358	 8,98158527127584E-02 
359	 5,25976651491072E-02 
360	 2,40536724808993E-02 
361	 8,22318884944479E-03 
362	 1,66181044479919E-02 
363	 5,99428474422816E-02 
364	 7,03270007270561E-02 
365	 5,25591123083439E-02 
366	 7,95669947944439E-02 
367	 0,089090038205409 
368	 4,74439046724844E-02 
369	-5,66639211738507E-03 
370	-3,61454810397704E-02 
371	 1,41125547669617E-02 
372	 4,40843741992465E-02 
373	 3,56655919749335E-02 
374	 4,43351128889318E-02 
375	 5,09681397251503E-02 
376	 4,35864667322457E-02 
377	 5,64660377851478E-02 
378	 0,075085874658624 
379	 6,12243954238612E-02 
380	 3,67370548862003E-02 
381	 1,78492698521264E-02 
382	 0,048137954503851 
383	 7,38489048176611E-02 
384	 4,94434325646486E-02 
385	 3,64990797513208E-02 
386	 4,23330593027166E-02 
387	 5,56693935925964E-02 
388	 6,37191148464588E-02 
389	 5,91284442812519E-02 
390	 3,71240682182215E-02 
391	 2,12533546569475E-02 
392	 4,08247724943917E-02 
393	 3,95538870615945E-02 
394	 2,19590315589456E-02 
395	 4,23679709264865E-02 
396	 5,17099933811417E-02 
397	 3,13550785585118E-02 
398	 2,95741130694476E-02 
399	 0,040110730167781 
400	 4,62323003003058E-02 
401	 4,39516420024892E-02 
402	 3,56608879861883E-02 
403	 3,35818158544601E-02 
404	 4,04799669803911E-02 
405	 5,52478722566067E-02 
406	 5,42460996112222E-02 
407	 4,40154754589385E-02 
408	 4,37394353999812E-02 
409	 0,047362432979296 
410	 5,13446173018264E-02 
411	 4,81486723055956E-02 
412	 4,12786648605063E-02 
413	 3,46854600008955E-02 
414	 3,45895858452573E-02 
415	 3,95364018983247E-02 
416	 4,35042040271788E-02 
417	 4,56441306249185E-02 
418	 4,54937448965221E-02 
419	 4,43898931650313E-02 
420	 4,41079980128728E-02 
421	 4,66568461027008E-02 
422	 4,60706195305435E-02 
423	 4,37128930236357E-02 
424	 4,95404506125999E-02 
425	 5,06282620680713E-02 
426	 4,09436730019574E-02 
427	 3,92609740369787E-02 
428	 4,23158956434629E-02 
429	 3,90767506669808E-02 
430	 4,07292661928852E-02 
431	 4,76650091820631E-02 
432	 4,79680944187754E-02 
433	 0,04618694144568 
434	 4,67376707533048E-02 
435	 4,81417967374721E-02 
436	 4,88908724029462E-02 
437	 4,52712049260557E-02 
438	 4,38576080103734E-02 
439	 4,65706755801247E-02 
440	 4,69074820440816E-02 
441	 4,63480446217593E-02 
442	 4,74895920385293E-02 
443	 4,76790850013599E-02 
444	 4,69088348825692E-02 
445	 4,71029829460029E-02 
446	 4,78379760060009E-02 
447	 4,88063729621357E-02 
448	 4,96721672399467E-02 
449	 0,050368741471967 
450	 0,050965932463998 
451	 5,09825743441682E-02 
452	 5,05335807138907E-02 
453	 0,050725668580987 
454	 5,13448685203463E-02 
455	 5,19938071641762E-02 
456	 4,98974911972885E-02 
457	 4,68199613615153E-02 
458	 4,84180611719285E-02 
459	 5,20302552136183E-02 
460	 0,055732867366158 
461	 5,53016130719886E-02 
462	 5,33387257197217E-02 
463	 5,38676591851258E-02 
464	 5,24513148269011E-02 
465	 4,94886679415627E-02 
466	 4,97576169269745E-02 
467	 0,051441758070974 
468	 5,30970886114558E-02 
469	 5,40035295732736E-02 
470	 5,37950198582999E-02 
471	 0,051830367225876 
472	 5,13654666739302E-02 
473	 5,29872735431464E-02 
474	 5,35655625748176E-02 
475	 5,40596913022947E-02 
476	 0,055434992999435 
477	 5,40398745399741E-02 
478	 0,051280724474987 
479	 5,28941837661291E-02 
480	 5,51437672577575E-02 
481	 5,60488276711154E-02 
482	 0,055008523385898 
483	 5,33750101255859E-02 
484	 5,30963822191628E-02 
485	 5,49111403244851E-02 
486	 5,78630362255706E-02 
487	 5,77700166437618E-02 
488	 5,71631559931398E-02 
489	 5,78788617818966E-02 
490	 5,74060498100961E-02 
491	 5,62682153679063E-02 
492	 5,64825318049097E-02 
493	 5,67644403188093E-02 
494	 0,056690930052649 
495	 5,63972729939307E-02 
496	 5,62126871693016E-02 
497	 5,64920867399774E-02 
498	 5,74369904871324E-02 
499	 5,85941622477962E-02 
500	 5,85941675969742E-02 
501	 5,81554908990646E-02 
502	 5,78901274450685E-02 
503	 5,90415992164554E-02 
504	 6,08541616065569E-02 
505	 6,18184813254348E-02 
506	 6,22194348349808E-02 
507	 6,21898736607587E-02 
508	 6,22031321428151E-02 
509	 6,17581688458659E-02 
510	 0,060537475980042 
511	 6,12532696398818E-02 
512	 6,32043600196913E-02 
513	 6,32891710712708E-02 
514	 6,32670349300165E-02 
515	 6,37148984683281E-02 
516	 6,34026446642495E-02 
517	 6,28720497929554E-02 
518	 6,29882596815821E-02 
519	 6,35926920062241E-02 
520	 6,47244677125402E-02 
521	 6,69892535141523E-02 
522	 0,067803311674157 
523	 6,56766758489905E-02 
524	 6,56527550989433E-02 
525	 6,72117376240787E-02 
526	 6,73054949355727E-02 
527	 6,72980309728651E-02 
528	 6,76001902406076E-02 
529	 6,81329956908003E-02 
530	 6,87769594895818E-02 
531	 6,93936378578245E-02 
532	 6,94074470837905E-02 
533	 6,90688469220838E-02 
534	 0,069549348938493 
535	 7,01735503794959E-02 
536	 7,05341215001521E-02 
537	 7,07622310498123E-02 
538	 0,070906278544462 
539	 7,10166917532595E-02 
540	 7,11951448518981E-02 
541	 7,15802785836597E-02 
542	 7,26714603444965E-02 
543	 7,34705221768506E-02 
544	 7,30571693586828E-02 
545	 7,31121655220546E-02 
546	 7,36851299674677E-02 
547	 7,38881814830418E-02 
548	 7,40037193338486E-02 
549	 7,42204184648215E-02 
550	 0,074888468332212 
551	 7,58149697826948E-02 
552	 7,66807866049175E-02 
553	 7,70129900191488E-02 
554	 7,68051004853407E-02 
555	 7,66951183524498E-02 
556	 7,65953896587961E-02 
557	 7,64591017644866E-02 
558	 7,67886693224993E-02 
559	 7,73973657155499E-02 
560	 7,76396794387778E-02 
561	 7,77682311319604E-02 
562	 0,077843931100443 
563	 7,76441821539383E-02 
564	 7,76213530386036E-02 
565	 7,83756194051923E-02 
566	 7,88896943199039E-02 
567	 7,90851959278849E-02 
568	 7,97276582297095E-02 
569	 8,03557223330542E-02 
570	 8,06530112144125E-02 
571	 8,08225391509537E-02 
572	 8,11689276070537E-02 
573	 8,23542880292585E-02 
574	 8,30680262081118E-02 
575	 8,29776742407485E-02 
576	 8,31406576843987E-02 
577	 8,33324623018522E-02 
578	 8,32351835577518E-02 
579	 0,083622964637784 
580	 8,44072523236029E-02 
581	 8,47632702267484E-02 
582	 8,50414467897729E-02 
583	 8,54114820323965E-02 
584	 8,55781203917756E-02 
585	 8,57917017481665E-02 
586	 8,66528007198871E-02 
587	 8,62215640031876E-02 
588	 8,48022782545225E-02 
589	 8,65154310312732E-02 
590	 8,85170416123478E-02 
591	 8,80738189516582E-02 
592	 8,76919941695283E-02 
593	 8,76813054945974E-02 
594	 8,75400832075914E-02 
595	 8,71429699104911E-02 
596	 8,66259773235092E-02 
597	 8,72555716753801E-02 
598	 8,85089792493738E-02 
599	 8,94591897596486E-02 
600	 8,94178527006066E-02 
601	 8,85649490686556E-02 
602	 8,85208740631434E-02 
603	 8,85912200260922E-02 
604	 8,82904048597962E-02 
605	 8,90187963064981E-02 
606	 0,089985123938077 
607	 8,85772443433756E-02 
608	 8,79008273605749E-02 
609	 8,88069810890771E-02 
610	 0,088734113556011 
611	 8,83872953004875E-02 
612	 8,88870973332636E-02 
613	 8,88239893222134E-02 
614	 8,82123072417361E-02 
615	 8,81973720464044E-02 
616	 8,85312589560199E-02 
617	 8,89762877546809E-02 
618	 8,88436994166938E-02 
619	 8,85518570825536E-02 
620	 0,089145736909522 
621	 8,96991773078292E-02 
622	 8,99261447886906E-02 
623	 9,00385593857096E-02 
624	 0,090107164542165 
625	 9,01877454997598E-02 
626	 8,99959554404019E-02 
627	 8,97011954407645E-02 
628	 8,99822604209142E-02 
629	 9,01349082215927E-02 
630	 8,98450696523117E-02 
631	 8,96371832828269E-02 
632	 8,96644373968913E-02 
633	 9,00693178292012E-02 
634	 9,03776682312493E-02 
635	 9,05304292764775E-02 
636	 9,09889949166179E-02 
637	 9,13649970341083E-02 
638	 9,13562990416339E-02 
639	 9,16056628719963E-02 
640	 9,20756682045152E-02 
641	 9,23150968205576E-02 
642	 9,28449404936506E-02 
643	 9,36806264076761E-02 
644	 9,37045690224727E-02 
645	 9,32958001280644E-02 
646	 0,093084327638271 
647	 0,092696457607722 
648	 9,22096437217387E-02 
649	 9,20305431551493E-02 
650	 9,22989728846901E-02 
651	 9,29968109751595E-02 
652	 9,31588993807187E-02 
653	 9,28148963001191E-02 
654	 9,23257241915442E-02 
655	 9,19958346515906E-02 
656	 9,19091545617881E-02 
657	 9,18154663872285E-02 
658	 9,14371291378144E-02 
659	 9,05434633428343E-02 
660	 9,00923902025502E-02 
661	 9,01082436507087E-02 
662	 9,01009693168032E-02 
663	 8,96103321906606E-02 
664	 8,85494191299831E-02 
665	 8,81815948173891E-02 
666	 8,83346159666686E-02 
667	 0,08850107461961 
668	 8,85682159314021E-02 
669	 8,84572830481053E-02 
670	 8,81808142892237E-02 
671	 8,77429646790788E-02 
672	 8,72038762906233E-02 
673	 8,71341132138035E-02 
674	 8,75126203589751E-02 
675	 8,81206144999438E-02 
676	 8,83656988042996E-02 
677	 8,81405506425492E-02 
678	 8,83355926676326E-02 
679	 8,88866376310955E-02 
680	 8,96161442254828E-02 
681	 8,98298263212336E-02 
682	 8,97259235211458E-02 
683	 9,05327832698545E-02 
684	 9,13609825337823E-02 
685	 9,16980273457065E-02 
686	 9,19089700215295E-02 
687	 9,23244004838046E-02 
688	 9,34491659794687E-02 
689	 9,44822449042774E-02 
690	 9,52067311643925E-02 
691	 9,58609185271967E-02 
692	 9,67949617966695E-02 
693	 9,82642978100498E-02 
694	 9,93811384034582E-02 
695	 0,100240700874744 
696	 0,101560019334153 
697	 0,102904104815837 
698	 0,104104477561561 
699	 0,105254136974264 
700	 0,10641621876911 
701	 0,107664927682928 
702	 0,108654251507103 
703	 0,109537869486382 
704	 0,111148466366544 
705	 0,112655849191479 
706	 0,113577858677677 
707	 0,114707076874385 
708	 0,115857136190804 
709	 0,116486691264212 
710	 0,116858784225442 
711	 0,117221221733149 
712	 0,118169728095949 
713	 0,119408975982311 
714	 0,12058284563369 
715	 0,120894894064277 
716	 0,120786465778686 
717	 0,121840124865971 
718	 0,122845930776044 
719	 0,123283889171972 
720	 0,123219396259506 
721	 0,123318345136208 
722	 0,12440244941368 
723	 0,125081076698557 
724	 0,125206893336627 
725	 0,125560154530203 
726	 0,125827319119669 
727	 0,125874385583668 
728	 0,126232053155177 
729	 0,126667818203575 
730	 0,126619343845833 
731	 0,126803214583091 
732	 0,127286397475019 
733	 0,127358444689725 
734	 0,127379604513089 
735	 0,127667676149912 
736	 0,127803688089121 
737	 0,127956600828284 
738	 0,128801254682054 
739	 0,129309408033155 
740	 0,129189890359723 
741	 0,129271702420878 
742	 0,129477858586551 
743	 0,129637023351195 
744	 0,129581638388303 
745	 0,129479263873332 
746	 0,130036443296678 
747	 0,13027354576366 
748	 0,129777754065708 
749	 0,129601483337415 
750	 0,129898738388137 
751	 0,130711907111238 
752	 0,131111745674103 
753	 0,130977879506619 
754	 0,130990114170224 
755	 0,131177930988534 
756	 0,131530899847312 
757	 0,131714502384233 
758	 0,131859277267868 
759	 0,13237381112243 
760	 0,132692254239907 
761	 0,132683767313902 
762	 0,132683525810731 
763	 0,132765774338714 
764	 0,132982166871535 
765	 0,133312445334148 
766	 0,133578760119967 
767	 0,13328381295053 
768	 0,133317301785081 
769	 0,133910511237387 
770	 0,134143492468912 
771	 0,134095973376773 
772	 0,133967186856762 
773	 0,134155528978594 
774	 0,134582342909252 
775	 0,134684462306564 
776	 0,134792060821665 
777	 0,13500865761316 
778	 0,134821459784983 
779	 0,134576726479365 
780	 0,134849669425655 
781	 0,135130771894723 
782	 0,135302901477599 
783	 0,135452795172191 
784	 0,135686148442996 
785	 0,136021385641101 
786	 0,136005018406777 
787	 0,135791355671372 
788	 0,135749502794844 
789	 0,135938116828364 
790	 0,136282393286085 
791	 0,136343723023801 
792	 0,136389378809909 
793	 0,136645751467955 
794	 0,137070991348904 
795	 0,1374689084924 
796	 0,137451284731954 
797	 0,137367106673882 
798	 0,1373466073616 
799	 0,137354538451357 
800	 0,137454685358231 
801	 0,137698523905617 
802	 0,138005398631856 
803	 0,138232023453549 
804	 0,138051526361239 
805	 0,13798992065853 
806	 0,138177978936938 
807	 0,138083117951534 
808	 0,138101347179674 
809	 0,138648464535384 
810	 0,138682745911381 
811	 0,138399616113507 
812	 0,139037217131335 
813	 0,139313217742904 
814	 0,138851960239441 
815	 0,138890372144116 
816	 0,139155503811738 
817	 0,139193881832924 
818	 0,138914689165444 
819	 0,138592899888342 
820	 0,139168409809363 
821	 0,139521837610526 
822	 0,139212170554112 
823	 0,139169388672651 
824	 0,139290720272187 
825	 0,139326478939156 
826	 0,13949541107508 
827	 0,139754772356562 
828	 0,139799635987049 
829	 0,139988923838131 
830	 0,140429503300153 
831	 0,140568013554567 
832	 0,140371972330777 
833	 0,139892627728675 
834	 0,140055975732613 
835	 0,140825287360369 
836	 0,141324435257523 
837	 0,141378142502368 
838	 0,140967804917186 
839	 0,140842684229875 
840	 0,140920444208915 
841	 0,140946977641326 
842	 0,141078944309295 
843	 0,141188621423871 
844	 0,140721395511769 
845	 0,14049641828652 
846	 0,140862801040079 
847	 0,140833783163409 
848	 0,14050429842996 
849	 0,140169098603847 
850	 0,140438396506766 
851	 0,141158148516937 
852	 0,141333443259608 
853	 0,141134244121062 
854	 0,140704923736809 
855	 0,140370073590446 
856	 0,140324791320842 
857	 0,140750482128208 
858	 0,141169664161208 
859	 0,141306298467876 
860	 0,140773766646104 
861	 0,140159696000489 
862	 0,139842504775149 
863	 0,139935263709588 
864	 0,140195921614804 
865	 0,140294963302537 
866	 0,140882800709158 
867	 0,14169945546077 
868	 0,141569732390566 
869	 0,141213079123382 
870	 0,140997749892873 
871	 0,140865132368724 
872	 0,140880163701645 
873	 0,141112228726688 
874	 0,141694609334916 
875	 0,142352641066855 
876	 0,142295949998644 
877	 0,142035697004007 
878	 0,141893854978243 
879	 0,142368117907335 
880	 0,142715887110425 
881	 0,142150611577162 
882	 0,141875436972363 
883	 0,14198601790935 
884	 0,141978287272244 
885	 0,142433903753954 
886	 0,143330880833083 
887	 0,143635300365551 
888	 0,143297731188221 
889	 0,142458032741398 
890	 0,14267087823271 
891	 0,143371170707381 
892	 0,142609040274277 
893	 0,142294845879567 
894	 0,142833426606849 
895	 0,143208330052925 
896	 0,143042988612094 
897	 0,142185050854486 
898	 0,141813629816825 
899	 0,142063329012032 
900	 0,142831703324282 
901	 0,142893685027472 
902	 0,142254228448258 
903	 0,142474144492751 
904	 0,142785964112702 
905	 0,142687432747404 
906	 0,142223645121673 
907	 0,141891077061086 
908	 0,14236609196628 
909	 0,142222535857691 
910	 0,141695631702183 
911	 0,14274220090149 
912	 0,143478137589023 
913	 0,143089081920078 
914	 0,142417538914227 
915	 0,142354635769166 
916	 0,143662686452813 
917	 0,143605640872852 
918	 0,142617506051538 
919	 0,143325754031089 
920	 0,143769950259885 
921	 0,143331201571355 
922	 0,142376257369911 
923	 0,14167301144859 
924	 0,141912445385569 
925	 0,143425905299637 
926	 0,1449124658788 
927	 0,144051180068718 
928	 0,143132740537497 
929	 0,142780854650795 
930	 0,142460697702534 
931	 0,143011063571688 
932	 0,144620220422655 
933	 0,145187642871078 
934	 0,145005384142567 
935	 0,144813113723039 
936	 0,14583622719442 
937	 0,147120308290762 
938	 0,145069496801183 
939	 0,143533693520972 
940	 0,143854796768133 
941	 0,144443050761482 
942	 0,144818925787551 
943	 0,144679263600734 
944	 0,144879035944634 
945	 0,145237721748168 
946	 0,145139453944074 
947	 0,145419308506984 
948	 0,145851438218568 
949	 0,14468514309908 
950	 0,143844025790888 
951	 0,144331952553734 
952	 0,144721527014727 
953	 0,145024830871921 
954	 0,145384568482511 
955	 0,144464805299936 
956	 0,1429431692595 
957	 0,143252406486481 
958	 0,143320201979055 
959	 0,142780230410167 
960	 0,143141826102012 
961	 0,144496657545535 
962	 0,146516756880212 
963	 0,146510508621676 
964	 0,145136586077964 
965	 0,144018293307426 
966	 0,144373101375088 
967	 0,145627807661369 
968	 0,144808791059802 
969	 0,144116497134699 
970	 0,144476674283026 
971	 0,145780561203761 
972	 0,145525440174702 
973	 0,14202368280835 
974	 0,142148779069356 
975	 0,144601719349536 
976	 0,144926868581848 
977	 0,144404505614693 
978	 0,143878254799993 
979	 0,145307695025969 
980	 0,146639874553779 
981	 0,14696885111624 
982	 0,147920737880286 
983	 0,147304774909282 
984	 0,143309535563714 
985	 0,14235671576947 
986	 0,144197113844643 
987	 0,145876156542631 
988	 0,146736640332594 
989	 0,146535282018718 
990	 0,145520978381969 
991	 0,145772808474149 
992	 0,147880666568681 
993	 0,148032527993157 
994	 0,147934695463945 
995	 0,149398517251376 
996	 0,148006513323951 
997	 0,14512863826621 
998	 0,144887064212227 
999	 0,1456135978634 
1000	 0,146854610766969 
1001	 0,148908554173471 
1002	 0,14879753220054 
1003	 0,145962651994057 
1004	 0,146454664280729 
1005	 0,148195167730665 
1006	 0,148711724821465 
1007	 0,149433573257019 
1008	 0,150176343719548 
1009	 0,150338970711766 
1010	 0,149283209455715 
1011	 0,147100705423905 
1012	 0,143991895529055 
1013	 0,144604992686706 
1014	 0,149669759461492 
1015	 0,15163869635541 
1016	 0,151145705447669 
1017	 0,149448970940687 
1018	 0,149656487679987 
1019	 0,149844521318289 
1020	 0,146531789597493 
1021	 0,14624251651511 
1022	 0,14941699367342 
1023	 0,153457197955813 
1024	 0,151918302181411 
1025	 0,145454787017487 
1026	 0,148617679631908 
1027	 0,152186646310726 
1028	 0,150088865974448 
1029	 0,146438127815767 
1030	 0,14610935265473 
1031	 0,153217972073143 
1032	 0,153013531103453 
1033	 0,149050180305853 
1034	 0,154358637245412 
1035	 0,160058745236979 
1036	 0,162378355412053 
1037	 0,15708939307593 
1038	 0,153679974593359 
1039	 0,155023481884791 
1040	 0,150593091006117 
1041	 0,144620941589872 
1042	 0,141713923089424 
1043	 0,144294128906208 
1044	 0,148130313080961 
1045	 0,147035091424916 
1046	 0,143393878416283 
1047	 0,144126091986605 
1048	 0,164742698267815 
1049	 0,168553366100923 
1050	 0,152353325815169 
1051	 0,150776788880162 
1052	 0,147970048593431 
1053	 0,139478922370155 
1054	 0,145659889598221 
1055	 0,15550408281571 
1056	 0,158351540115681 
1057	 0,160645976414675 
1058	 0,158660402811495 
1059	 0,147122457153378 
1060	 0,145951077225128 
1061	 0,153263996170241 
1062	 0,155089561784799 
1063	 0,149168302831201 
1064	 0,139853299574831 
1065	 0,146329711697928 
1066	 0,154228719992262 
1067	 0,155173193128823 
1068	 0,141677961923594 
1069	 0,139948751718967 
1070	 0,164096824639492 
1071	 0,157705123196369 
1072	 0,147704566755603 
1073	 0,16840805579944 
1074	 0,164470037168033 
1075	 0,144211016880727 
