Wavelength	SCORFF200021.asd
325	 0,248471054712802 
326	 0,180025033038528 
327	 0,143285706271241 
328	 0,155642948756063 
329	 0,204765915540409 
330	 0,222930232672043 
331	 0,168072675185646 
332	 0,12662605702452 
333	 0,129880521712031 
334	 0,218548941946521 
335	 0,17491012988398 
336	 2,44203024257669E-02 
337	 7,38586776890196E-02 
338	 0,126870472522154 
339	-2,97410095940022E-02 
340	-0,026986394847955 
341	 5,70322896143773E-02 
342	-5,30896338545783E-02 
343	-1,42653332342003E-02 
344	 0,171408557150804 
345	 0,118644394985465 
346	 1,25644039692751E-02 
347	 4,15238490068775E-02 
348	 8,00014555196156E-02 
349	 0,10439176916887 
350	 0,124317834940252 
351	 0,126270563014781 
352	 0,105046069838603 
353	 6,34495146957039E-02 
354	 3,70745662337742E-02 
355	 6,97112708628948E-02 
356	 6,92912015795625E-02 
357	 4,06657675407248E-02 
358	 5,61701162287563E-02 
359	 8,09166189248252E-02 
360	 9,48592685138243E-02 
361	 4,88133032482954E-02 
362	 2,9070613752044E-03 
363	 5,10943866002716E-02 
364	 8,18759030250008E-02 
365	 7,73933950760956E-02 
366	 5,68103808857853E-02 
367	 0,048778737931127 
368	 6,41547604760526E-02 
369	 3,70260211708002E-02 
370	 1,57861965084344E-03 
371	 4,17939628479072E-02 
372	 5,50749864568893E-02 
373	 3,22442049517375E-02 
374	 6,30883451647047E-02 
375	 8,35065547469356E-02 
376	 5,12788373066803E-02 
377	 3,73471657153435E-02 
378	 4,38394878794175E-02 
379	 5,03616568871192E-02 
380	 4,53374183976386E-02 
381	 3,06702340060651E-02 
382	 4,51675361131428E-02 
383	 5,58033502597957E-02 
384	 3,41118811126367E-02 
385	 2,98591287525809E-02 
386	 4,22651504916742E-02 
387	 4,47944620250926E-02 
388	 0,048564453418508 
389	 5,37703502203099E-02 
390	 4,06267347212587E-02 
391	 2,86599078875318E-02 
392	 4,32707839332431E-02 
393	 4,08296583293048E-02 
394	 2,34599784824065E-02 
395	 2,69613864671716E-02 
396	 3,18742734962301E-02 
397	 3,00403098846282E-02 
398	 3,63180028284148E-02 
399	 4,31469706877354E-02 
400	 3,79914089732674E-02 
401	 3,24701148774452E-02 
402	 2,97659735587292E-02 
403	 2,68550972476114E-02 
404	 3,12870255919709E-02 
405	 4,52237992849787E-02 
406	 4,12186175797421E-02 
407	 2,73850683820255E-02 
408	 2,73034853053977E-02 
409	 2,99877402436963E-02 
410	 3,18874924247186E-02 
411	 3,27095953604477E-02 
412	 2,85974746932831E-02 
413	 1,72797388467418E-02 
414	 2,46160204017983E-02 
415	 4,13675125293758E-02 
416	 3,30934814309205E-02 
417	 2,65897549982048E-02 
418	 3,10685282142655E-02 
419	 3,09128096373265E-02 
420	 0,028556028148937 
421	 2,87069204418411E-02 
422	 3,05159145871438E-02 
423	 3,26890356973984E-02 
424	 3,18963567532223E-02 
425	 0,030401106487972 
426	 2,97123448485302E-02 
427	 3,07523727885091E-02 
428	 3,13898261477077E-02 
429	 2,71328733911108E-02 
430	 2,80206339752886E-02 
431	 3,37727573251412E-02 
432	 2,93982487870706E-02 
433	 2,50343746308271E-02 
434	 2,95380365608311E-02 
435	 3,05006748034268E-02 
436	 2,83129529661427E-02 
437	 3,00602600342143E-02 
438	 2,97902943369022E-02 
439	 2,61917797288281E-02 
440	 2,62512183384155E-02 
441	 0,027599513414927 
442	 2,64980758292672E-02 
443	 0,026147562285003 
444	 2,72446886664684E-02 
445	 2,99730233463413E-02 
446	 3,10482921833966E-02 
447	 2,86568304550532E-02 
448	 2,57504163254884E-02 
449	 2,46995841078769E-02 
450	 2,91956434460713E-02 
451	 3,10500977635551E-02 
452	 2,86864280469274E-02 
453	 2,80704320464793E-02 
454	 2,80993457806838E-02 
455	 2,74791169020922E-02 
456	 2,55569465422279E-02 
457	 2,38806508070143E-02 
458	 2,68368218634495E-02 
459	 2,99968688308443E-02 
460	 3,12037961575083E-02 
461	 3,02764034324203E-02 
462	 2,87458174414544E-02 
463	 2,86773260739419E-02 
464	 2,64225542211448E-02 
465	 2,30250342206001E-02 
466	 2,50670185015701E-02 
467	 2,77320097708658E-02 
468	 2,78338647959873E-02 
469	 2,80790961418467E-02 
470	 0,028698680576116 
471	 2,95684735296307E-02 
472	 2,92822333180439E-02 
473	 2,78461773831206E-02 
474	 2,76859176248804E-02 
475	 2,75986431911895E-02 
476	 2,63734125911916E-02 
477	 2,65252505377884E-02 
478	 2,76110982545964E-02 
479	 2,70803190062883E-02 
480	 2,60920513169498E-02 
481	 2,55102393550705E-02 
482	 2,73015187537219E-02 
483	 0,029654167332745 
484	 2,97289237353993E-02 
485	 0,029005980005612 
486	 0,027944021047797 
487	 2,64395067525694E-02 
488	 2,60005659131638E-02 
489	 2,75450765122643E-02 
490	 0,028121929374775 
491	 2,76396417818365E-02 
492	 2,71710757324102E-02 
493	 2,60887353909939E-02 
494	 2,45457922375781E-02 
495	 2,39903112612199E-02 
496	 2,43215941706939E-02 
497	 0,025268391791598 
498	 2,64149361174772E-02 
499	 2,73347353496265E-02 
500	 2,73533282077215E-02 
501	 2,69038646859948E-02 
502	 2,62807306973849E-02 
503	 2,53770087559736E-02 
504	 2,51030324484386E-02 
505	 2,70209079101593E-02 
506	 0,029023977225592 
507	 2,98814887067083E-02 
508	 2,77031925583442E-02 
509	 2,49806910370362E-02 
510	 2,40819403603594E-02 
511	 2,50661558078073E-02 
512	 2,67137316859468E-02 
513	 2,57859152738878E-02 
514	 2,55505320621186E-02 
515	 2,68934179680222E-02 
516	 2,58541075844161E-02 
517	 2,41597247563681E-02 
518	 2,47031840604906E-02 
519	 2,52674447710565E-02 
520	 2,56255649619014E-02 
521	 2,72420536817365E-02 
522	 2,81876742755404E-02 
523	 2,72368095843688E-02 
524	 0,027137453680466 
525	 2,75736965338745E-02 
526	 2,66978061947241E-02 
527	 2,62839181810302E-02 
528	 2,67499181341648E-02 
529	 2,68222541219124E-02 
530	 2,68532687172261E-02 
531	 2,73372078207556E-02 
532	 2,64624008320925E-02 
533	 2,47998884319711E-02 
534	 2,53697407400868E-02 
535	 2,61678590731372E-02 
536	 2,60256530667748E-02 
537	 2,56327633418587E-02 
538	 2,54494630041405E-02 
539	 2,61950863502935E-02 
540	 2,65907543738496E-02 
541	 2,63895084598689E-02 
542	 2,65913003599918E-02 
543	 2,66784716857335E-02 
544	 2,61353726251211E-02 
545	 2,56608943321911E-02 
546	 2,56438500291625E-02 
547	 2,68829173057886E-02 
548	 2,73074470395923E-02 
549	 2,61831184083884E-02 
550	 0,026324384288525 
551	 2,69232239120782E-02 
552	 0,026205447601697 
553	 2,59253206451399E-02 
554	 2,63424649068124E-02 
555	 0,026431541729611 
556	 0,026424919733385 
557	 2,65148805244268E-02 
558	 2,63915435328562E-02 
559	 2,61063438080435E-02 
560	 0,025876455198707 
561	 0,02586357076608 
562	 2,59609057233956E-02 
563	 2,49917317991547E-02 
564	 2,40241271768379E-02 
565	 2,45723501004497E-02 
566	 2,49896261119467E-02 
567	 2,51140448160155E-02 
568	 2,59995142198567E-02 
569	 2,69064183047478E-02 
570	 2,72318637933871E-02 
571	 2,64984929990057E-02 
572	 2,54859582031561E-02 
573	 2,60341230133821E-02 
574	 2,63269861012152E-02 
575	 2,60246431795639E-02 
576	 2,69461788993756E-02 
577	 2,78109227347738E-02 
578	 2,71024281715335E-02 
579	 2,66227622951565E-02 
580	 2,68526606220045E-02 
581	 0,028000394343056 
582	 2,85417230152315E-02 
583	 2,77714678527504E-02 
584	 2,78095306854533E-02 
585	 2,83179159373407E-02 
586	 2,82042699391688E-02 
587	 2,79209597578953E-02 
588	 2,77518258383807E-02 
589	 0,028345337075105 
590	 2,90541163764326E-02 
591	 2,92424196404355E-02 
592	 2,91198644518168E-02 
593	 2,87760666081947E-02 
594	 2,81823556199231E-02 
595	 2,83720836614079E-02 
596	 2,95333251131935E-02 
597	 2,92591651225462E-02 
598	 0,028527305906409 
599	 2,92015221581865E-02 
600	 2,93214402888842E-02 
601	 2,86702900007294E-02 
602	 2,85695633908976E-02 
603	 2,85969693247529E-02 
604	 2,84502494177856E-02 
605	 2,89588919944771E-02 
606	 2,95417587750536E-02 
607	 2,84299654427003E-02 
608	 2,74747691816353E-02 
609	 0,027352191639889 
610	 2,73992100055851E-02 
611	 2,75850009758375E-02 
612	 2,79348686547625E-02 
613	 2,71759192884482E-02 
614	 0,025733939799993 
615	 2,59998446887354E-02 
616	 2,68055213242035E-02 
617	 2,73144061777509E-02 
618	 2,71922189264737E-02 
619	 2,68942937664936E-02 
620	 2,74776181437828E-02 
621	 2,78177029612971E-02 
622	 2,76614771194912E-02 
623	 2,77340255398342E-02 
624	 2,76714528640577E-02 
625	 2,71069060201015E-02 
626	 2,73220675300691E-02 
627	 2,81025725126789E-02 
628	 2,80116815871058E-02 
629	 2,78644493671432E-02 
630	 0,028005435090878 
631	 2,77914842824696E-02 
632	 2,74921212241749E-02 
633	 2,76409606355886E-02 
634	 2,78553029311492E-02 
635	 0,028112831661169 
636	 2,88504561941733E-02 
637	 2,93806825774892E-02 
638	 2,91463971239931E-02 
639	 2,88177494959193E-02 
640	 2,87472171332358E-02 
641	 2,95129736688092E-02 
642	 3,00877708306415E-02 
643	 3,00801898338958E-02 
644	 3,00158151095737E-02 
645	 3,00591529307818E-02 
646	 3,03570797245503E-02 
647	 3,03289634451713E-02 
648	 0,029998645280972 
649	 2,99534200027147E-02 
650	 3,01673267617358E-02 
651	 3,05052547247373E-02 
652	 2,98397938107811E-02 
653	 2,88878861168091E-02 
654	 2,95043425036941E-02 
655	 2,97060773039863E-02 
656	 2,90515048973116E-02 
657	 2,88639181173673E-02 
658	 2,87338584647545E-02 
659	 2,81927733874812E-02 
660	 2,82464121633061E-02 
661	 2,86621471316371E-02 
662	 2,82018737206423E-02 
663	 2,74687540722676E-02 
664	 2,68478750367528E-02 
665	 2,67459439826681E-02 
666	 2,69154844595175E-02 
667	 0,026888968105212 
668	 2,69098532377944E-02 
669	 2,69408539080638E-02 
670	 2,65852965010736E-02 
671	 2,63861748450574E-02 
672	 2,67468779116898E-02 
673	 0,027007673258483 
674	 2,70594079050247E-02 
675	 2,69360712506009E-02 
676	 2,68278530589773E-02 
677	 2,67932390628598E-02 
678	 2,65612870003769E-02 
679	 2,66117079143167E-02 
680	 2,75081549777778E-02 
681	 2,77428520983406E-02 
682	 2,72546002774888E-02 
683	 0,027070889516134 
684	 2,70118990827737E-02 
685	 2,70266276152382E-02 
686	 2,74419427206774E-02 
687	 2,79751441092988E-02 
688	 2,80386092438713E-02 
689	 2,84399486006268E-02 
690	 0,029295049438558 
691	 2,99256672647716E-02 
692	 3,06472013681621E-02 
693	 3,17646695869153E-02 
694	 3,31031329495941E-02 
695	 3,47244331139961E-02 
696	 3,68502756925938E-02 
697	 3,92157476687759E-02 
698	 4,17848931932709E-02 
699	 4,50171248192421E-02 
700	 4,86631385628244E-02 
701	 5,23574272708432E-02 
702	 5,64301212533198E-02 
703	 0,060877781051963 
704	 6,54746679108395E-02 
705	 7,02229136280894E-02 
706	 7,51088511490258E-02 
707	 0,080082698423584 
708	 0,085137848088261 
709	 9,02947047144973E-02 
710	 9,52437776816794E-02 
711	 9,98502054871445E-02 
712	 0,104011867361951 
713	 0,108109107569248 
714	 0,11249426868409 
715	 0,117086154850913 
716	 0,12151979768091 
717	 0,124948041578111 
718	 0,128147650197138 
719	 0,131415638170169 
720	 0,134343310683533 
721	 0,137175283705019 
722	 0,140264851371061 
723	 0,142983069871218 
724	 0,145199163243078 
725	 0,147015040450998 
726	 0,148811990382205 
727	 0,150791725064929 
728	 0,15243408415661 
729	 0,15380573969703 
730	 0,155149313727675 
731	 0,156473250359524 
732	 0,157746266885643 
733	 0,15880580165293 
734	 0,159704893563668 
735	 0,16049369706994 
736	 0,161068336801242 
737	 0,161683775376757 
738	 0,163102078428684 
739	 0,163941770467683 
740	 0,163908116958518 
741	 0,164608339339651 
742	 0,165607495411328 
743	 0,166246655679176 
744	 0,166339683119763 
745	 0,166186722791133 
746	 0,166891009793759 
747	 0,167450359457778 
748	 0,167392994724976 
749	 0,16743391737714 
750	 0,167687008948979 
751	 0,168186491182073 
752	 0,168713675295818 
753	 0,169191925762955 
754	 0,169698830446086 
755	 0,169957700116768 
756	 0,169795781080014 
757	 0,169509866251627 
758	 0,169465178287024 
759	 0,170316476926637 
760	 0,170851763845535 
761	 0,170776208813614 
762	 0,170802499732162 
763	 0,171118229369216 
764	 0,171817279994018 
765	 0,172089821762066 
766	 0,171976890930767 
767	 0,172019530922097 
768	 0,172099360268126 
769	 0,172167619285696 
770	 0,172075481964564 
771	 0,172054299806114 
772	 0,172379125490447 
773	 0,172658854831557 
774	 0,172879524755575 
775	 0,173356026511425 
776	 0,173599823441561 
777	 0,173383012287828 
778	 0,173025404284524 
779	 0,172860822239713 
780	 0,173307018314184 
781	 0,173432267968833 
782	 0,173185042618742 
783	 0,173335716780437 
784	 0,173665125026972 
785	 0,173974913192422 
786	 0,173879188867267 
787	 0,173676008327924 
788	 0,174008199696851 
789	 0,174140228236375 
790	 0,173990138074111 
791	 0,174199584636599 
792	 0,174377201619904 
793	 0,174245676479702 
794	 0,174465555156906 
795	 0,174891089353523 
796	 0,174996847953267 
797	 0,174968068623119 
798	 0,174894679017618 
799	 0,174932595764011 
800	 0,175019429095255 
801	 0,175082663231092 
802	 0,175094896076749 
803	 0,175033374983481 
804	 0,174799762134181 
805	 0,174876406819992 
806	 0,175341715719348 
807	 0,1755076938991 
808	 0,175592083463015 
809	 0,175870439278726 
810	 0,176039751526605 
811	 0,176129173884801 
812	 0,176374835918706 
813	 0,176707931217885 
814	 0,177032864850816 
815	 0,176972408637951 
816	 0,176868691324684 
817	 0,177150679542081 
818	 0,177225846401823 
819	 0,177142147425174 
820	 0,177489669364428 
821	 0,177619443810597 
822	 0,177338391793392 
823	 0,177499581479414 
824	 0,177917442230873 
825	 0,178240534754676 
826	 0,178490251146313 
827	 0,178639244862926 
828	 0,1786160451308 
829	 0,178687048406844 
830	 0,178949798080999 
831	 0,179008127544586 
832	 0,178974269664214 
833	 0,179057606445812 
834	 0,179460970593453 
835	 0,180008196358126 
836	 0,180018668310884 
837	 0,17973241652932 
838	 0,17937731818524 
839	 0,179500012602167 
840	 0,179880221378656 
841	 0,180111824823834 
842	 0,18011348496773 
843	 0,179921070496731 
844	 0,179702825047219 
845	 0,179864485969552 
846	 0,180448055403815 
847	 0,1800519473138 
848	 0,179298381891957 
849	 0,1792747765135 
850	 0,179699082984062 
851	 0,180219155860034 
852	 0,179927571557908 
853	 0,179504583472425 
854	 0,179331873778714 
855	 0,179234497211308 
856	 0,179220811177742 
857	 0,179314922300345 
858	 0,179438671660155 
859	 0,179521948845238 
860	 0,179474304566853 
861	 0,179201426845654 
862	 0,178772150480381 
863	 0,17889615955297 
864	 0,179315365496337 
865	 0,179591665733199 
866	 0,180002691900098 
867	 0,18049034787995 
868	 0,180764964772391 
869	 0,180885728834518 
870	 0,180850385818089 
871	 0,180424795820558 
872	 0,180203130213912 
873	 0,180873840625794 
874	 0,181441662122203 
875	 0,181736410396504 
876	 0,181955573646705 
877	 0,182292042532674 
878	 0,182776799243813 
879	 0,182999798223708 
880	 0,183205388754375 
881	 0,183674365310838 
882	 0,184073648877235 
883	 0,184310284280426 
884	 0,184296150622655 
885	 0,18437158464671 
886	 0,184730670074171 
887	 0,185712436999795 
888	 0,186079635575774 
889	 0,184850823369657 
890	 0,184844962016348 
891	 0,185724260410094 
892	 0,185575286317175 
893	 0,185408822559796 
894	 0,185500653788368 
895	 0,185753967183439 
896	 0,185696198298702 
897	 0,185081339593278 
898	 0,185273786113967 
899	 0,185771249374306 
900	 0,185289210373942 
901	 0,185165390238591 
902	 0,185533677697857 
903	 0,185367061260187 
904	 0,185390674124423 
905	 0,185919653109684 
906	 0,185780935425537 
907	 0,185274040710924 
908	 0,185028135844182 
909	 0,185123258739306 
910	 0,185561721573715 
911	 0,186306533433357 
912	 0,186614453338955 
913	 0,186259273300728 
914	 0,186355813412121 
915	 0,18641781323232 
916	 0,185836767302288 
917	 0,185328739876306 
918	 0,18520616689242 
919	 0,185932864738472 
920	 0,18617951342608 
921	 0,185658095783672 
922	 0,185561848734775 
923	 0,185517890823253 
924	 0,185265690915561 
925	 0,185865022529823 
926	 0,186663438855862 
927	 0,186230253482123 
928	 0,185837358044395 
929	 0,185679524144201 
930	 0,184970462642482 
931	 0,184735752600869 
932	 0,185434910020654 
933	 0,185864928446188 
934	 0,185659710507123 
935	 0,184617059511382 
936	 0,185294445512098 
937	 0,186612706644126 
938	 0,183723352893401 
939	 0,181609296813382 
940	 0,181997703366164 
941	 0,182900933531967 
942	 0,183368089756315 
943	 0,182697279767684 
944	 0,181964471981803 
945	 0,181199506091913 
946	 0,180082604611749 
947	 0,179336664095298 
948	 0,178947757204408 
949	 0,178028951037601 
950	 0,176979857856383 
951	 0,176174519045572 
952	 0,176476595549876 
953	 0,176436921152449 
954	 0,174365805632946 
955	 0,173864155132957 
956	 0,174460871315663 
957	 0,173004133561475 
958	 0,170774324169665 
959	 0,168770018745283 
960	 0,169351982085983 
961	 0,170281287352317 
962	 0,169891300486394 
963	 0,170113831365557 
964	 0,170407846609213 
965	 0,169613644695612 
966	 0,16890071625646 
967	 0,16866175870264 
968	 0,169272585698892 
969	 0,168858557699344 
970	 0,167140870125725 
971	 0,1673955989945 
972	 0,167977971954777 
973	 0,16727423722478 
974	 0,166558581327502 
975	 0,166474712696198 
976	 0,16779164146182 
977	 0,168048390174802 
978	 0,167229164388953 
979	 0,167789853939282 
980	 0,168931862327055 
981	 0,170090290284333 
982	 0,170646999605877 
983	 0,169745651984678 
984	 0,167015705007372 
985	 0,167404079412856 
986	 0,170482653305495 
987	 0,173654666286521 
988	 0,173185484043396 
989	 0,169741555530959 
990	 0,170336369567732 
991	 0,17092146845499 
992	 0,169910464532072 
993	 0,171000709477728 
994	 0,173364186948595 
995	 0,175548031702306 
996	 0,174141683000001 
997	 0,171053770165044 
998	 0,171243667856777 
999	 0,171723968756244 
1000	 0,172049460621235 
1001	 0,173579575357321 
1002	 0,174935343536269 
1003	 0,175249592218706 
1004	 0,173890584776257 
1005	 0,173060841989858 
1006	 0,174787166687722 
1007	 0,176329319979912 
1008	 0,178212672353171 
1009	 0,182300946407571 
1010	 0,181456576398748 
1011	 0,176258498102749 
1012	 0,174492596470414 
1013	 0,176819565779351 
1014	 0,182114764783086 
1015	 0,18287595540058 
1016	 0,180406245713914 
1017	 0,17705800883065 
1018	 0,179697136676831 
1019	 0,183314210469497 
1020	 0,179177444506656 
1021	 0,179728190503435 
1022	 0,184563364080462 
1023	 0,184179313107627 
1024	 0,184151766858967 
1025	 0,185624853543638 
1026	 0,185379863655387 
1027	 0,185280774529523 
1028	 0,186156603919139 
1029	 0,183798366837235 
1030	 0,183745841694202 
1031	 0,191669770137131 
1032	 0,188975814395018 
1033	 0,182273303017674 
1034	 0,192109376332979 
1035	 0,198463109595894 
1036	 0,196228882341571 
1037	 0,187451146486328 
1038	 0,187187854502308 
1039	 0,197918077240369 
1040	 0,192464255451693 
1041	 0,185514040866442 
1042	 0,189259422810705 
1043	 0,188148988138876 
1044	 0,185888709565979 
1045	 0,189839472648504 
1046	 0,189299864059664 
1047	 0,186778434375013 
1048	 0,19354930227559 
1049	 0,201087481733147 
1050	 0,204631921826024 
1051	 0,194433982870055 
1052	 0,187770794675958 
1053	 0,191691322619817 
1054	 0,192237385176073 
1055	 0,192163048717286 
1056	 0,194416734457424 
1057	 0,197911616975199 
1058	 0,200031065628634 
1059	 0,197195062459545 
1060	 0,191618822632498 
1061	 0,184989579231399 
1062	 0,178801741943106 
1063	 0,181976791484843 
1064	 0,192976413421891 
1065	 0,196422919553432 
1066	 0,195345856844886 
1067	 0,190759435461293 
1068	 0,178717292641218 
1069	 0,179714781716201 
1070	 0,204225399634949 
1071	 0,209022588249893 
1072	 0,204933805359491 
1073	 0,209200512834934 
1074	 0,211939072386899 
1075	 0,210142034951335 
