Wavelength	SCORFF200126.asd
325	 0,412008259346338 
326	 0,433459133882281 
327	 0,434377703566567 
328	 0,406228322758379 
329	 0,412854236585334 
330	 0,416177086419995 
331	 0,386183673212962 
332	 0,345782862793203 
333	 0,327790388672936 
334	 0,373180017851166 
335	 0,401085106666607 
336	 0,388402795848151 
337	 0,433945727538428 
338	 0,480850568468433 
339	 0,443315569604168 
340	 0,420992024566043 
341	 0,416774424105065 
342	 0,389099258720241 
343	 0,388152015790205 
344	 0,413282820454592 
345	 0,399939816497093 
346	 0,372925255252684 
347	 0,360260080608914 
348	 0,362445036923976 
349	 0,375290952983102 
350	 0,397985146856271 
351	 0,394033622926774 
352	 0,357075234785638 
353	 0,334503094543095 
354	 0,329190127020741 
355	 0,344335562367218 
356	 0,360028292930172 
357	 0,370066978667512 
358	 0,385488324550911 
359	 0,384574275107831 
360	 0,359207516795639 
361	 0,323697028197317 
362	 0,307663894455416 
363	 0,346920552286102 
364	 0,383877461859551 
365	 0,399587703266269 
366	 0,367124214935934 
367	 0,342738443147647 
368	 0,355269062931449 
369	 0,340788363177857 
370	 0,313166618007632 
371	 0,315642628411046 
372	 0,324260481723368 
373	 0,333077156815545 
374	 0,346925807057563 
375	 0,352420828161013 
376	 0,342628848796642 
377	 0,34389745638225 
378	 0,351363989516273 
379	 0,346182529319725 
380	 0,33708953430183 
381	 0,330505697181835 
382	 0,345049154839964 
383	 0,355043567873623 
384	 0,339511796723623 
385	 0,341700817216228 
386	 0,356979013662247 
387	 0,352871194127608 
388	 0,347910342547535 
389	 0,348234741213463 
390	 0,344919655182719 
391	 0,341090239090394 
392	 0,341530643917262 
393	 0,337742654945305 
394	 0,333326536086773 
395	 0,345204890776636 
396	 0,355329979674187 
397	 0,355327388107628 
398	 0,349662842270172 
399	 0,347392807228269 
400	 0,360980443254478 
401	 0,36396065722289 
402	 0,353659292520803 
403	 0,346394058445341 
404	 0,347009638012287 
405	 0,35696719110174 
406	 0,360521200530183 
407	 0,359950551579399 
408	 0,365721158620764 
409	 0,361773275288464 
410	 0,348609911610724 
411	 0,349606682248559 
412	 0,351949413319119 
413	 0,343732574880908 
414	 0,347027317845523 
415	 0,356617497907878 
416	 0,349997455865471 
417	 0,343988580810094 
418	 0,344476740001674 
419	 0,340738576401556 
420	 0,339133039560115 
421	 0,348749932826078 
422	 0,352684759879107 
423	 0,3495963442214 
424	 0,34866616836847 
425	 0,349050514321028 
426	 0,349934384071063 
427	 0,347843991924397 
428	 0,345611404852701 
429	 0,349263261518076 
430	 0,351054582663849 
431	 0,349098547301252 
432	 0,345583895966783 
433	 0,344422873751231 
434	 0,348467168055545 
435	 0,349009432578336 
436	 0,346359890085191 
437	 0,345387989478391 
438	 0,344718366900405 
439	 0,344328864043905 
440	 0,346786465328622 
441	 0,348562810976786 
442	 0,345119116202739 
443	 0,342223403242361 
444	 0,341905376318624 
445	 0,346120416819883 
446	 0,348409557466313 
447	 0,345177102931224 
448	 0,34250091357872 
449	 0,34224277488362 
450	 0,346115800682184 
451	 0,349755729152927 
452	 0,351771879727914 
453	 0,353947448850389 
454	 0,353879689647488 
455	 0,34961538091828 
456	 0,346361745366458 
457	 0,345121873469311 
458	 0,344958607046871 
459	 0,346984756432604 
460	 0,35068736722368 
461	 0,350532880613816 
462	 0,349201188620932 
463	 0,350936020964882 
464	 0,352501654067662 
465	 0,352713701939409 
466	 0,35003256916975 
467	 0,348610134287942 
468	 0,350991352167755 
469	 0,353390505178461 
470	 0,354584422659165 
471	 0,353192243972135 
472	 0,3529143755024 
473	 0,354498866704501 
474	 0,355021695462377 
475	 0,35498956461781 
476	 0,355000073690157 
477	 0,353342447502811 
478	 0,351300703978029 
479	 0,353328171290889 
480	 0,354890109685226 
481	 0,354039608255495 
482	 0,35316769932222 
483	 0,35329800190827 
484	 0,355581448738495 
485	 0,356098143308373 
486	 0,3545725117766 
487	 0,35412234036897 
488	 0,355187512115602 
489	 0,35763841238085 
490	 0,3567365105019 
491	 0,354064175934346 
492	 0,355007608401805 
493	 0,356137625467303 
494	 0,356070316510835 
495	 0,353793888423487 
496	 0,351967876789801 
497	 0,353566964999761 
498	 0,354648753008907 
499	 0,354990116539461 
500	 0,357136181158714 
501	 0,358251367653706 
502	 0,357023405322262 
503	 0,356552264395483 
504	 0,357255034701587 
505	 0,359115690436215 
506	 0,360836598947423 
507	 0,361792355515291 
508	 0,361654834191202 
509	 0,360823580873689 
510	 0,359817500235354 
511	 0,360890698510378 
512	 0,363014589402369 
513	 0,36249119386913 
514	 0,361550581031421 
515	 0,361280031653989 
516	 0,362071472941452 
517	 0,363067057977925 
518	 0,362970960577961 
519	 0,364397042927345 
520	 0,366893194576062 
521	 0,366401874810951 
522	 0,365582766069192 
523	 0,366332006165489 
524	 0,36673259412687 
525	 0,366822398752065 
526	 0,367461064954843 
527	 0,367444255086604 
528	 0,36666341118316 
529	 0,366900374945443 
530	 0,367374372424937 
531	 0,367053891873776 
532	 0,365912883295235 
533	 0,364502726866312 
534	 0,364438434876713 
535	 0,364762618111912 
536	 0,364870629799758 
537	 0,364751672049816 
538	 0,364612891311635 
539	 0,364857445430621 
540	 0,365142135833377 
541	 0,365343732291992 
542	 0,365385246428121 
543	 0,365633138147302 
544	 0,366409955331902 
545	 0,366816233620415 
546	 0,36692859865109 
547	 0,367557744445702 
548	 0,368042810553314 
549	 0,368083837271531 
550	 0,367998669116096 
551	 0,367918925189242 
552	 0,36796529405118 
553	 0,368319121589592 
554	 0,368806393828541 
555	 0,368594737283435 
556	 0,368147991467406 
557	 0,367855600532789 
558	 0,367311156354683 
559	 0,366629220236461 
560	 0,366204521052534 
561	 0,365925721520857 
562	 0,365724910631575 
563	 0,365379343326237 
564	 0,36510434611084 
565	 0,365205471041196 
566	 0,365325757208211 
567	 0,365550588636751 
568	 0,366554616256965 
569	 0,367465564550722 
570	 0,367748041590325 
571	 0,368599073096296 
572	 0,36982130941133 
573	 0,370543407935887 
574	 0,37163384368756 
575	 0,373126267863188 
576	 0,373680804681017 
577	 0,373779273048487 
578	 0,374088567264751 
579	 0,37523650215529 
580	 0,376948175673023 
581	 0,37780410567262 
582	 0,378900570790754 
583	 0,380691242024932 
584	 0,381574623343996 
585	 0,382075338444154 
586	 0,383512567874533 
587	 0,384542128137426 
588	 0,385079247341636 
589	 0,386634299370154 
590	 0,388184612596051 
591	 0,388771108656394 
592	 0,389809269279565 
593	 0,391011768027805 
594	 0,390751876865734 
595	 0,390795092196613 
596	 0,391764231108324 
597	 0,391769837720139 
598	 0,391537328583459 
599	 0,392463413759016 
600	 0,392638871873034 
601	 0,391855336580384 
602	 0,391469368858766 
603	 0,391250661905512 
604	 0,390986150073727 
605	 0,390610888408943 
606	 0,390067980636252 
607	 0,389242804233009 
608	 0,388482953123494 
609	 0,387881965469129 
610	 0,386938809549683 
611	 0,386317752797233 
612	 0,386854296137032 
613	 0,386928491135085 
614	 0,38631519397376 
615	 0,38566703420041 
616	 0,385446444254781 
617	 0,385866436849291 
618	 0,385874025456109 
619	 0,385598149752357 
620	 0,385599062420376 
621	 0,385862478810446 
622	 0,38617373601029 
623	 0,385504922488919 
624	 0,384636438781629 
625	 0,384428179840054 
626	 0,384574415673748 
627	 0,384919986364106 
628	 0,38524220511914 
629	 0,385364368856919 
630	 0,38524789864219 
631	 0,38536165604851 
632	 0,385766935190042 
633	 0,386451143806151 
634	 0,387286489522346 
635	 0,388150972552731 
636	 0,388810938952152 
637	 0,389423992516267 
638	 0,390135247982191 
639	 0,390843189843622 
640	 0,391740605168401 
641	 0,393538423602713 
642	 0,394418834577495 
643	 0,393969269041982 
644	 0,394691386076109 
645	 0,39592226817282 
646	 0,396509021434383 
647	 0,396109163321425 
648	 0,394990409351007 
649	 0,394491366040046 
650	 0,393889519894427 
651	 0,392741149112943 
652	 0,391588508705353 
653	 0,390592644101104 
654	 0,389955498116016 
655	 0,388984297401603 
656	 0,387622964657826 
657	 0,386963863663492 
658	 0,386137100751949 
659	 0,384220092616839 
660	 0,382358548866303 
661	 0,380824176922569 
662	 0,379562391383568 
663	 0,378525752688029 
664	 0,377592597417152 
665	 0,376196321903994 
666	 0,374705912250557 
667	 0,373776470672341 
668	 0,373064004550025 
669	 0,372468077623803 
670	 0,371976923739547 
671	 0,371500773058172 
672	 0,371011455468287 
673	 0,371122666830475 
674	 0,371457669266928 
675	 0,370790951987573 
676	 0,370590435164778 
677	 0,371189798619675 
678	 0,37113304445417 
679	 0,371029139359433 
680	 0,371723245017905 
681	 0,372446323922986 
682	 0,373085710807372 
683	 0,373873042653029 
684	 0,374765128486004 
685	 0,375818699724877 
686	 0,377590324389847 
687	 0,379846670972492 
688	 0,382021855115423 
689	 0,384654774779007 
690	 0,387962245530385 
691	 0,392092725621975 
692	 0,396643653139799 
693	 0,401301319781816 
694	 0,406979322636299 
695	 0,413545360563218 
696	 0,420277477862497 
697	 0,427242937086834 
698	 0,434492957478348 
699	 0,442331802993218 
700	 0,450534299827882 
701	 0,458794582239275 
702	 0,466934888916993 
703	 0,474934712296212 
704	 0,483038527507874 
705	 0,491012966564798 
706	 0,498655281218187 
707	 0,505715322205979 
708	 0,512301307670555 
709	 0,518665567790463 
710	 0,524581277964942 
711	 0,530110635494692 
712	 0,535753105021164 
713	 0,541084239052712 
714	 0,54570664513044 
715	 0,550042207744765 
716	 0,554096925691933 
717	 0,557638745547199 
718	 0,561056387106545 
719	 0,5644195267815 
720	 0,567010941247538 
721	 0,569341196281597 
722	 0,572139811365394 
723	 0,574317119479833 
724	 0,575880869630851 
725	 0,577751980070981 
726	 0,579542637630863 
727	 0,581037920162813 
728	 0,582535408134453 
729	 0,583909502953268 
730	 0,58485418320137 
731	 0,585919588044273 
732	 0,587095867377262 
733	 0,587533587862229 
734	 0,587968590083374 
735	 0,589004042059751 
736	 0,589436245385398 
737	 0,589639371467606 
738	 0,591208113333671 
739	 0,592160843126742 
740	 0,591939045028407 
741	 0,59199694763821 
742	 0,592439040162003 
743	 0,593222911952863 
744	 0,593476872364237 
745	 0,593291896122965 
746	 0,593639956033174 
747	 0,593964738261947 
748	 0,594040372534857 
749	 0,59447454955757 
750	 0,594928373939201 
751	 0,594774408811073 
752	 0,594887275658182 
753	 0,595404182404134 
754	 0,595870306472418 
755	 0,596224041311527 
756	 0,596429895365185 
757	 0,596565414469754 
758	 0,596820769668896 
759	 0,597559236518473 
760	 0,598185315016049 
761	 0,598514148881795 
762	 0,598758255101071 
763	 0,598984490029673 
764	 0,599259368360168 
765	 0,59974805506913 
766	 0,600321845012686 
767	 0,600601327634942 
768	 0,600707756664317 
769	 0,600711479221413 
770	 0,600726961895445 
771	 0,60086882702434 
772	 0,601240158250895 
773	 0,601315398363277 
774	 0,601142822243863 
775	 0,601304719590408 
776	 0,601288490623729 
777	 0,600906009444001 
778	 0,600801874851112 
779	 0,600831363776169 
780	 0,600682092165205 
781	 0,6002639323868 
782	 0,599727091710602 
783	 0,599645511906045 
784	 0,599816327712061 
785	 0,600067306927062 
786	 0,60022445487876 
787	 0,600196732889606 
788	 0,599872001430761 
789	 0,599755389458679 
790	 0,599964523919602 
791	 0,600241762800031 
792	 0,600442375140106 
793	 0,600476575436985 
794	 0,600662928940592 
795	 0,600923144673665 
796	 0,600958828039876 
797	 0,601113136640798 
798	 0,601428726616133 
799	 0,601542046984549 
800	 0,601568152673347 
801	 0,601634956874237 
802	 0,601739268537341 
803	 0,60182484249755 
804	 0,601681207409563 
805	 0,601835767546183 
806	 0,60241420719344 
807	 0,602970589273204 
808	 0,603208278723834 
809	 0,602874655015223 
810	 0,602402621292478 
811	 0,602153332284626 
812	 0,602907732658541 
813	 0,603069973200877 
814	 0,602212606824801 
815	 0,602333425376287 
816	 0,60270082270113 
817	 0,602267451145431 
818	 0,601949651406074 
819	 0,602027513037224 
820	 0,602803796697616 
821	 0,603056238375661 
822	 0,602384521666825 
823	 0,602413296429237 
824	 0,602849529740943 
825	 0,60310135543962 
826	 0,603558510516757 
827	 0,604123772104608 
828	 0,604258429949751 
829	 0,604433894313295 
830	 0,604829340107527 
831	 0,604851348519823 
832	 0,604850165779538 
833	 0,605372328093075 
834	 0,605948429688264 
835	 0,606444855154881 
836	 0,606873916303777 
837	 0,607222143501704 
838	 0,607415052648074 
839	 0,607013859280944 
840	 0,60654349080561 
841	 0,606784068974649 
842	 0,607014590902368 
843	 0,606978864583201 
844	 0,606453627611235 
845	 0,606061206448405 
846	 0,60611802921519 
847	 0,606168243002333 
848	 0,606026149810386 
849	 0,605517285589424 
850	 0,605449785901095 
851	 0,605654677483406 
852	 0,604828289697382 
853	 0,604140210466058 
854	 0,604173116997382 
855	 0,604221903063183 
856	 0,604097109388463 
857	 0,603658763878725 
858	 0,603412525305782 
859	 0,603346413393142 
860	 0,602967857517897 
861	 0,602595565658895 
862	 0,602443642819731 
863	 0,602712683869913 
864	 0,603106853994958 
865	 0,603221416070022 
866	 0,603303403240488 
867	 0,603483334038308 
868	 0,603985250021313 
869	 0,604500915731403 
870	 0,604843094678441 
871	 0,604804637418564 
872	 0,60508430562562 
873	 0,606478388920289 
874	 0,607431304214762 
875	 0,607726116175505 
876	 0,607764988678229 
877	 0,608168378770772 
878	 0,60908647748615 
879	 0,60954931573927 
880	 0,609770119275047 
881	 0,610057768416338 
882	 0,610256399817411 
883	 0,610268538164376 
884	 0,609834210724216 
885	 0,609679214728205 
886	 0,610020947792027 
887	 0,61032273462733 
888	 0,610796824565704 
889	 0,611605213483335 
890	 0,612019701010168 
891	 0,611812105590557 
892	 0,610758645416929 
893	 0,610043529370939 
894	 0,610095842360331 
895	 0,610764180034674 
896	 0,610991255762611 
897	 0,610021608404931 
898	 0,608967977369255 
899	 0,608163550705846 
900	 0,607800253998783 
901	 0,608123325909113 
902	 0,608689674361316 
903	 0,607636877410259 
904	 0,606825507867103 
905	 0,607242344135574 
906	 0,606883679038382 
907	 0,606211516909287 
908	 0,606212857486694 
909	 0,606091222812045 
910	 0,60594281655749 
911	 0,606833267096959 
912	 0,606754975083659 
913	 0,605237910159013 
914	 0,60563014956229 
915	 0,606493585712501 
916	 0,605985630804342 
917	 0,606012406343423 
918	 0,606644294131841 
919	 0,607255791509811 
920	 0,606895072507962 
921	 0,605712249491551 
922	 0,606227500620269 
923	 0,606917545539037 
924	 0,606602811055842 
925	 0,607815322040097 
926	 0,609451662668461 
927	 0,608900814959957 
928	 0,608137270480574 
929	 0,607878756434391 
930	 0,608503109706134 
931	 0,609262077760716 
932	 0,609659352004758 
933	 0,609804889384615 
934	 0,609678247440955 
935	 0,609285042890305 
936	 0,609788842427206 
937	 0,610747558919866 
938	 0,610116629426845 
939	 0,609817643722829 
940	 0,61028965573041 
941	 0,609791047017899 
942	 0,609096680171221 
943	 0,608918833075642 
944	 0,608233765140853 
945	 0,607636953018264 
946	 0,608563976390876 
947	 0,608229511572144 
948	 0,606568773925849 
949	 0,606532380575731 
950	 0,606283424635989 
951	 0,605008246222491 
952	 0,60468251413666 
953	 0,604659824834445 
954	 0,6039471664431 
955	 0,603201337801876 
956	 0,602588913879923 
957	 0,602321710089455 
958	 0,600967015716481 
959	 0,598737002213361 
960	 0,598738988774448 
961	 0,600021576187096 
962	 0,601481249417081 
963	 0,601333230674937 
964	 0,600192712433827 
965	 0,599445091405176 
966	 0,598903735729061 
967	 0,598379125326659 
968	 0,597154701484403 
969	 0,596503681134477 
970	 0,59682917153126 
971	 0,597030187931345 
972	 0,597254481372648 
973	 0,597550040577982 
974	 0,596063276787059 
975	 0,594547841687347 
976	 0,596587708746579 
977	 0,598117234701478 
978	 0,598275659725154 
979	 0,598194722620842 
980	 0,598921630839302 
981	 0,600592938193018 
982	 0,600651734184708 
983	 0,599521135840448 
984	 0,598117788176676 
985	 0,599453939498667 
986	 0,60222283654637 
987	 0,602774821400694 
988	 0,602633412407339 
989	 0,602241857957643 
990	 0,601795478884932 
991	 0,601077778745414 
992	 0,600416059138292 
993	 0,602324362081663 
994	 0,604394071893889 
995	 0,604044878576354 
996	 0,603309240629615 
997	 0,602870330576921 
998	 0,60333322515817 
999	 0,60316678173809 
1000	 0,602444992376329 
1001	 0,603222094861393 
1002	 0,603137250472216 
1003	 0,601858530584223 
1004	 0,604496985726272 
1005	 0,608523878928343 
1006	 0,610835875580458 
1007	 0,609836060613232 
1008	 0,608131318001701 
1009	 0,610891471131769 
1010	 0,609314320623582 
1011	 0,604150875618467 
1012	 0,605636524681841 
1013	 0,607455515216872 
1014	 0,607258918865166 
1015	 0,608345729994707 
1016	 0,608134049351526 
1017	 0,605316271677348 
1018	 0,609299243954182 
1019	 0,615233640016134 
1020	 0,614106564214613 
1021	 0,61269213075488 
1022	 0,612090974613598 
1023	 0,610618903528846 
1024	 0,610304108429402 
1025	 0,611664079918401 
1026	 0,613798305747733 
1027	 0,614574638326413 
1028	 0,61289342291385 
1029	 0,611143964364806 
1030	 0,611827110913428 
1031	 0,61676640501634 
1032	 0,615885505568966 
1033	 0,611818285770354 
1034	 0,613795905049414 
1035	 0,618967757769506 
1036	 0,623288708083265 
1037	 0,614847453262107 
1038	 0,61122457075773 
1039	 0,617041613193613 
1040	 0,609916816544253 
1041	 0,604630563414477 
1042	 0,61243608627939 
1043	 0,612428117592817 
1044	 0,609093817800714 
1045	 0,612212123836833 
1046	 0,616815329858924 
1047	 0,618775455952302 
1048	 0,610392375525605 
1049	 0,609109238650742 
1050	 0,617454860811319 
1051	 0,622715676446574 
1052	 0,625749499432832 
1053	 0,626389773493818 
1054	 0,622227842862234 
1055	 0,616202228437228 
1056	 0,612019049927233 
1057	 0,615678354233717 
1058	 0,621697291490899 
1059	 0,620971639323413 
1060	 0,621944847143716 
1061	 0,622167104107309 
1062	 0,611787447091941 
1063	 0,611944895711809 
1064	 0,623201732902003 
1065	 0,622830870229857 
1066	 0,619748554246667 
1067	 0,617908269609252 
1068	 0,614834359482125 
1069	 0,619400075373963 
1070	 0,633788950958102 
1071	 0,626662200754682 
1072	 0,613578686387661 
1073	 0,616273656386014 
1074	 0,631210906235657 
1075	 0,642776218813434 
