Wavelength	SCORFF200214.asd
325	 0,734244438003013 
326	 0,634552582088035 
327	 0,432095265934987 
328	 0,240644633387411 
329	 0,481704741295531 
330	 0,674129347141986 
331	 0,496352419364972 
332	 0,382298891319456 
333	 0,379260388546593 
334	 0,372987095094648 
335	 0,353606135607229 
336	 0,332742432127678 
337	 0,345157852126668 
338	 0,354349748493308 
339	 0,317825147722219 
340	 0,271978646877355 
341	 0,243793563393505 
342	 0,245776509274023 
343	 0,310175956411404 
344	 0,390177143523141 
345	 0,328513353924419 
346	 0,254792278085024 
347	 0,300056157613587 
348	 0,338653191964352 
349	 0,349500402345097 
350	 0,347162453932919 
351	 0,321775471059461 
352	 0,284005760052619 
353	 0,271261143017197 
354	 0,276395816129499 
355	 0,292216150957596 
356	 0,314975205861327 
357	 0,333346454218814 
358	 0,336330551294805 
359	 0,334322576862329 
360	 0,329058432701273 
361	 0,294980053027348 
362	 0,270046774999636 
363	 0,310125622453599 
364	 0,345469480277579 
365	 0,3609029974365 
366	 0,354279018234879 
367	 0,340016269042057 
368	 0,327565550021128 
369	 0,309824796884374 
370	 0,294298625231561 
371	 0,297636989838981 
372	 0,307252416323897 
373	 0,318704470296678 
374	 0,332289068721318 
375	 0,33407182357228 
376	 0,3171924346094 
377	 0,313212136134943 
378	 0,321856215251749 
379	 0,331678419219312 
380	 0,336531221672765 
381	 0,334531945960173 
382	 0,333306184131265 
383	 0,330929238494253 
384	 0,325132074845054 
385	 0,31453329139266 
386	 0,308739684328227 
387	 0,334547906991219 
388	 0,347373788569727 
389	 0,332792039883329 
390	 0,320266504054598 
391	 0,31611375870919 
392	 0,325583759376905 
393	 0,327364898399474 
394	 0,319955873424164 
395	 0,312955279131525 
396	 0,313296970888233 
397	 0,322183846829067 
398	 0,321423294012764 
399	 0,318243725943069 
400	 0,327024178807671 
401	 0,323916424909987 
402	 0,30957652003225 
403	 0,30807894540569 
404	 0,311026700508875 
405	 0,312252998453962 
406	 0,313399951508998 
407	 0,31585733922653 
408	 0,322053410821472 
409	 0,329670167461329 
410	 0,335083116647307 
411	 0,3265996554844 
412	 0,317804007823371 
413	 0,320971215128556 
414	 0,320916665097236 
415	 0,317738391522628 
416	 0,319376128571872 
417	 0,317778497801681 
418	 0,311835669825607 
419	 0,314955610665508 
420	 0,320958706155523 
421	 0,320628874354735 
422	 0,319861915936727 
423	 0,319314234266318 
424	 0,31599063664098 
425	 0,316042466257956 
426	 0,3218499376723 
427	 0,320253930738555 
428	 0,314920730826946 
429	 0,315295703022539 
430	 0,31785866682053 
431	 0,320459454063704 
432	 0,318063945042702 
433	 0,315744566653468 
434	 0,317891263855117 
435	 0,318786820795681 
436	 0,318325212473554 
437	 0,318897971658759 
438	 0,319661685429584 
439	 0,320130102758931 
440	 0,319224289555023 
441	 0,31855580934982 
442	 0,320219618054689 
443	 0,319725758706801 
444	 0,31766010470865 
445	 0,31981925687073 
446	 0,321456967353446 
447	 0,319921289554523 
448	 0,319076855720913 
449	 0,319743762319569 
450	 0,322547560142714 
451	 0,323964678736135 
452	 0,32325660147913 
453	 0,323096376763081 
454	 0,322541307997496 
455	 0,320770511816133 
456	 0,320485004871113 
457	 0,321680253098489 
458	 0,322993574076416 
459	 0,323885559267176 
460	 0,323882420125705 
461	 0,3221445268349 
462	 0,320633609581951 
463	 0,321967434400027 
464	 0,322369606573955 
465	 0,321669631152608 
466	 0,322666824094474 
467	 0,324520796894536 
468	 0,326328146479919 
469	 0,325540213314014 
470	 0,324067133742446 
471	 0,326707101287316 
472	 0,326559575399768 
473	 0,323077437455749 
474	 0,324772420242853 
475	 0,32731135400254 
476	 0,326123652084203 
477	 0,324702086770309 
478	 0,323647059443573 
479	 0,322352704909926 
480	 0,322417372513997 
481	 0,324146611329647 
482	 0,324053176836392 
483	 0,323452434119174 
484	 0,324873773316486 
485	 0,325309396188214 
486	 0,324435252135785 
487	 0,323910403563373 
488	 0,324793133183443 
489	 0,327429171385819 
490	 0,326819444814266 
491	 0,324283836803157 
492	 0,324752141786296 
493	 0,325025205593789 
494	 0,324092113819068 
495	 0,322049583492267 
496	 0,32150090832502 
497	 0,325208951860807 
498	 0,327437814000239 
499	 0,327051213731535 
500	 0,324816004878685 
501	 0,323918689210282 
502	 0,32568718074928 
503	 0,324333127272486 
504	 0,322136537696311 
505	 0,324335381886147 
506	 0,326708329424715 
507	 0,327747629939229 
508	 0,326976860972457 
509	 0,325606282587557 
510	 0,324818160149667 
511	 0,325141806853301 
512	 0,326081050289795 
513	 0,326147534163878 
514	 0,325851160998292 
515	 0,325473648691032 
516	 0,325369974329807 
517	 0,325665933276747 
518	 0,326486761576251 
519	 0,326517262937822 
520	 0,326148622058279 
521	 0,328382094955309 
522	 0,329675467124282 
523	 0,327719735405273 
524	 0,32671733488926 
525	 0,327190894842139 
526	 0,328961228735148 
527	 0,329412611867423 
528	 0,328105915924813 
529	 0,328524566582468 
530	 0,329501323163188 
531	 0,329416868095202 
532	 0,328447316316751 
533	 0,327153472751109 
534	 0,327047149752233 
535	 0,327479720376533 
536	 0,327948034115738 
537	 0,327694302325227 
538	 0,327065888621693 
539	 0,326891396336368 
540	 0,326693079026573 
541	 0,326627900812993 
542	 0,327994326394082 
543	 0,329388215455668 
544	 0,329427666945835 
545	 0,329188302823807 
546	 0,329153315159035 
547	 0,330092981340018 
548	 0,330546776518669 
549	 0,33002591860187 
550	 0,330560174448623 
551	 0,331659569811183 
552	 0,332242943836993 
553	 0,332380409965496 
554	 0,33214954398098 
555	 0,331975054016775 
556	 0,33158309336997 
557	 0,330804999725659 
558	 0,330555381823167 
559	 0,330697427386979 
560	 0,330426150497494 
561	 0,330321755644425 
562	 0,330537690865628 
563	 0,33057206154768 
564	 0,330604508612229 
565	 0,33093345442124 
566	 0,330852770698547 
567	 0,330604788716374 
568	 0,331673319553287 
569	 0,332862732548507 
570	 0,333312420940377 
571	 0,333417591120885 
572	 0,333476604827799 
573	 0,333978214945613 
574	 0,334598259863872 
575	 0,335238884009857 
576	 0,336015307904864 
577	 0,336708324694027 
578	 0,337093440481411 
579	 0,338191375202343 
580	 0,33963577010432 
581	 0,339573995180729 
582	 0,339394690651172 
583	 0,339869682674837 
584	 0,340233825386855 
585	 0,340774405645537 
586	 0,342265131118831 
587	 0,342517279570371 
588	 0,341591289312981 
589	 0,34301253270498 
590	 0,344635017179164 
591	 0,344393893616262 
592	 0,344383728917204 
593	 0,344860188936381 
594	 0,345357769273573 
595	 0,345892759839535 
596	 0,346433806085576 
597	 0,346887610578447 
598	 0,347295984678615 
599	 0,347770869224501 
600	 0,34745860994192 
601	 0,346550519384497 
602	 0,34669315001678 
603	 0,347053958053389 
604	 0,346960060295646 
605	 0,346964460447508 
606	 0,346825173771072 
607	 0,345659609680122 
608	 0,344930219407846 
609	 0,344967534362617 
610	 0,343953560661007 
611	 0,343035186485557 
612	 0,343771357162993 
613	 0,344040951203381 
614	 0,343585005174925 
615	 0,343427461582211 
616	 0,343312802390147 
617	 0,34310086534735 
618	 0,342913467878209 
619	 0,342944330065738 
620	 0,343619747146845 
621	 0,343702858211488 
622	 0,343012644047286 
623	 0,342916478506845 
624	 0,34292852103285 
625	 0,342490980680287 
626	 0,342283853010757 
627	 0,342426095121017 
628	 0,342851396226373 
629	 0,343214273483626 
630	 0,343324238452976 
631	 0,343333128428011 
632	 0,343402292360753 
633	 0,343766995514378 
634	 0,343861056566315 
635	 0,343820786957347 
636	 0,344917270269249 
637	 0,34608278351758 
638	 0,346403592319553 
639	 0,346612760882831 
640	 0,34698216071632 
641	 0,347893267534744 
642	 0,348624931301452 
643	 0,348882282044011 
644	 0,348924287632417 
645	 0,348975618979334 
646	 0,349289945028146 
647	 0,349443044822092 
648	 0,349295058955742 
649	 0,348828477126171 
650	 0,348126238721875 
651	 0,347267970136601 
652	 0,346272821271122 
653	 0,345467356577726 
654	 0,345549348301868 
655	 0,34518916216736 
656	 0,344103392568659 
657	 0,343400144213479 
658	 0,342732728988182 
659	 0,341688500410678 
660	 0,340620697140652 
661	 0,339688154266826 
662	 0,339098076554523 
663	 0,338555864198352 
664	 0,337922336729685 
665	 0,337398834433875 
666	 0,336973244633614 
667	 0,336607350014688 
668	 0,335957144134216 
669	 0,335159789848386 
670	 0,335172314230201 
671	 0,335180715478994 
672	 0,334576206168315 
673	 0,334425196287739 
674	 0,334674017421719 
675	 0,334761415964067 
676	 0,334865127506609 
677	 0,334971125143618 
678	 0,334710658524313 
679	 0,334589145662117 
680	 0,335218150058486 
681	 0,335847286946733 
682	 0,336375426837504 
683	 0,337185314216724 
684	 0,337680233522383 
685	 0,337655833952612 
686	 0,338386554013714 
687	 0,33984177565593 
688	 0,341650325882871 
689	 0,343506523314939 
690	 0,345407016281557 
691	 0,347860707402389 
692	 0,350798887763787 
693	 0,35415246721773 
694	 0,358105447128777 
695	 0,362552540059413 
696	 0,367195875380735 
697	 0,372055579416462 
698	 0,3771714177354 
699	 0,382787434637461 
700	 0,388701466151454 
701	 0,394638602204636 
702	 0,40073197931158 
703	 0,406934405706804 
704	 0,413198352633235 
705	 0,418948980609184 
706	 0,423859395597553 
707	 0,428578796865971 
708	 0,433215396649727 
709	 0,437746290219033 
710	 0,442046253972819 
711	 0,446152854017945 
712	 0,450419823352283 
713	 0,454416069606098 
714	 0,457735709201943 
715	 0,460613268412827 
716	 0,463227865663617 
717	 0,465890139191402 
718	 0,468426948680651 
719	 0,470732121633074 
720	 0,472581112139745 
721	 0,474286566714283 
722	 0,476270081961078 
723	 0,478052766498874 
724	 0,479509819064869 
725	 0,48063830703422 
726	 0,481647382457611 
727	 0,482712766725507 
728	 0,484067403805418 
729	 0,485410172556316 
730	 0,486158217754686 
731	 0,486824744449573 
732	 0,487518149545562 
733	 0,487906899421882 
734	 0,488557435777286 
735	 0,48986722001415 
736	 0,490225547872582 
737	 0,49002684747985 
738	 0,491074421732456 
739	 0,49172584745843 
740	 0,491567965971178 
741	 0,49192050561225 
742	 0,492529514791801 
743	 0,492980387670371 
744	 0,493507745118156 
745	 0,493982469865063 
746	 0,493841406631132 
747	 0,493923573161406 
748	 0,494590912075645 
749	 0,494884436929758 
750	 0,494998939446424 
751	 0,495422032251713 
752	 0,495576176499877 
753	 0,495489694913225 
754	 0,495804164150775 
755	 0,496412962547152 
756	 0,497171397080871 
757	 0,497529984185684 
758	 0,497747568029085 
759	 0,498556159883277 
760	 0,499274360865497 
761	 0,499655089114897 
762	 0,499625834007768 
763	 0,499841776675947 
764	 0,500853690739317 
765	 0,501403065594941 
766	 0,501457638404475 
767	 0,501576755930542 
768	 0,50183015495527 
769	 0,50221726678101 
770	 0,502383221603747 
771	 0,502487804143256 
772	 0,502749430777708 
773	 0,502923794294314 
774	 0,503020491039599 
775	 0,503248907979166 
776	 0,503403946646058 
777	 0,503423520673413 
778	 0,503721908052593 
779	 0,503919387114675 
780	 0,503402581210039 
781	 0,503073713268375 
782	 0,503115702970632 
783	 0,503186434406143 
784	 0,503386402987876 
785	 0,503739969915793 
786	 0,503975440582121 
787	 0,503982862546465 
788	 0,503618896880217 
789	 0,50364839539181 
790	 0,504127501211671 
791	 0,504171851702373 
792	 0,504209519202622 
793	 0,504587719419178 
794	 0,505072892918084 
795	 0,505415646222334 
796	 0,505138093367796 
797	 0,505142496281467 
798	 0,505631914927267 
799	 0,505925181211053 
800	 0,506138335158217 
801	 0,506403902433536 
802	 0,506600782355091 
803	 0,506669016789683 
804	 0,506435213476713 
805	 0,506577911510475 
806	 0,507213752470309 
807	 0,507411223751423 
808	 0,507472604374359 
809	 0,507781210061593 
810	 0,507974174706145 
811	 0,5081253017722 
812	 0,508712654348716 
813	 0,508884557248605 
814	 0,50843558717604 
815	 0,508518978509886 
816	 0,508720037388531 
817	 0,508457995598523 
818	 0,50908224134559 
819	 0,510233390608599 
820	 0,50991457614476 
821	 0,509688405494021 
822	 0,510212531713976 
823	 0,510589678389584 
824	 0,510800165973387 
825	 0,510935641621936 
826	 0,511519161170888 
827	 0,512360413525601 
828	 0,512373818512866 
829	 0,512704819038756 
830	 0,513792928815363 
831	 0,514365829714082 
832	 0,514423610571932 
833	 0,514174467776371 
834	 0,514460418849892 
835	 0,515224443618916 
836	 0,515473750826756 
837	 0,515720230593114 
838	 0,516185885421119 
839	 0,516451959288868 
840	 0,516593030581028 
841	 0,516782852320074 
842	 0,516279722823182 
843	 0,51537184780909 
844	 0,515506441849221 
845	 0,516144363589362 
846	 0,516793723904205 
847	 0,516318423492919 
848	 0,515456931100143 
849	 0,515425708531711 
850	 0,515844226198345 
851	 0,516219321977974 
852	 0,515201656677714 
853	 0,514389853796263 
854	 0,51459114478731 
855	 0,514754298408559 
856	 0,514905690018662 
857	 0,515236673432744 
858	 0,515093028916338 
859	 0,5145854083374 
860	 0,5145882373498 
861	 0,514659996415377 
862	 0,514577515498062 
863	 0,514338628063806 
864	 0,514434054597374 
865	 0,515462389804671 
866	 0,516144318981788 
867	 0,516332278619406 
868	 0,516634729226561 
869	 0,516821095941758 
870	 0,516924470707108 
871	 0,517709967574691 
872	 0,518614410522081 
873	 0,518907215611711 
874	 0,519566821991053 
875	 0,52048812392739 
876	 0,520748221799179 
877	 0,521023722194541 
878	 0,52157020897034 
879	 0,522038908611863 
880	 0,522696368547745 
881	 0,523804891059907 
882	 0,524534201487342 
883	 0,524800166849959 
884	 0,524813501933782 
885	 0,525032199634585 
886	 0,525624229547875 
887	 0,526384299698095 
888	 0,526819722396926 
889	 0,526536329583291 
890	 0,526354439152267 
891	 0,526356499553866 
892	 0,526364068062089 
893	 0,526235663719885 
894	 0,5260613739735 
895	 0,52646994861642 
896	 0,526956732533967 
897	 0,527038594510673 
898	 0,526185726421919 
899	 0,525341231305857 
900	 0,526306033664015 
901	 0,52679285221855 
902	 0,526336144246592 
903	 0,525863592221179 
904	 0,525539348016012 
905	 0,525548976049521 
906	 0,526357829246753 
907	 0,527127216499083 
908	 0,526636281376722 
909	 0,526259093789747 
910	 0,526211114114219 
911	 0,525964846310972 
912	 0,526034847111708 
913	 0,526482593685102 
914	 0,526069661098517 
915	 0,525984409892097 
916	 0,527494435571342 
917	 0,527201111725278 
918	 0,525901661556006 
919	 0,527428859409048 
920	 0,528707690655714 
921	 0,528837994747562 
922	 0,529008555443786 
923	 0,529024227530632 
924	 0,528730522183685 
925	 0,528473672471165 
926	 0,528477743098273 
927	 0,529001032852568 
928	 0,529666895607903 
929	 0,530348420044177 
930	 0,531122397197608 
931	 0,531646658240081 
932	 0,531788315627602 
933	 0,53210683158372 
934	 0,532599180220874 
935	 0,533174169332179 
936	 0,534104041922536 
937	 0,53488910529123 
938	 0,534076891193005 
939	 0,532911700955074 
940	 0,532156023872259 
941	 0,532719382694464 
942	 0,533597475368461 
943	 0,533872303011313 
944	 0,534372671037612 
945	 0,534898558675247 
946	 0,534918532694265 
947	 0,534048285526269 
948	 0,532568593850743 
949	 0,531724971936137 
950	 0,531603566807509 
951	 0,532060980206527 
952	 0,531727406394879 
953	 0,531288118409057 
954	 0,531706845036917 
955	 0,53198098798956 
956	 0,531776105139062 
957	 0,53094865331676 
958	 0,529012462331074 
959	 0,526734186598724 
960	 0,52813282149431 
961	 0,529334235802927 
962	 0,527702872612636 
963	 0,528316939482441 
964	 0,529667502622301 
965	 0,528483664123773 
966	 0,526960304060552 
967	 0,526067849379369 
968	 0,527042570595889 
969	 0,527646099988211 
970	 0,527180872711693 
971	 0,52789567057107 
972	 0,527976513986254 
973	 0,526076548415219 
974	 0,527270474234847 
975	 0,52997220939116 
976	 0,529868741009064 
977	 0,529249586161452 
978	 0,528881020173106 
979	 0,52914732407055 
980	 0,530060863214178 
981	 0,53149462001005 
982	 0,533133374587354 
983	 0,532691381192074 
984	 0,528644354676759 
985	 0,530338443352874 
986	 0,53542065719994 
987	 0,535940127657273 
988	 0,534478129834329 
989	 0,5326846699617 
990	 0,534138233622542 
991	 0,535439068407239 
992	 0,535082078956353 
993	 0,535688290411759 
994	 0,536603696698004 
995	 0,537032423700521 
996	 0,538471972496063 
997	 0,539960267366571 
998	 0,539241274068745 
999	 0,537128894658201 
1000	 0,535389003018483 
1001	 0,539493246603506 
1002	 0,54159068161124 
1003	 0,538823635529965 
1004	 0,539592963185902 
1005	 0,541860551573837 
1006	 0,542953024619093 
1007	 0,54302594333582 
1008	 0,543368401724181 
1009	 0,546325754606037 
1010	 0,545326631916779 
1011	 0,541438016163833 
1012	 0,544458757675986 
1013	 0,545163872540272 
1014	 0,541397136222029 
1015	 0,544352976057432 
1016	 0,547283782465857 
1017	 0,544474210311418 
1018	 0,542316229110487 
1019	 0,542405471221712 
1020	 0,545554243541814 
1021	 0,547297357790062 
1022	 0,546793683612775 
1023	 0,544993070940904 
1024	 0,545355954813103 
1025	 0,547846089203346 
1026	 0,545692319595946 
1027	 0,544719151327401 
1028	 0,548148189053512 
1029	 0,549386825941294 
1030	 0,548777569030235 
1031	 0,547765916649642 
1032	 0,548509868950327 
1033	 0,55050435265823 
1034	 0,551561099023835 
1035	 0,556187030580876 
1036	 0,561765382223757 
1037	 0,55402867071325 
1038	 0,552517552683577 
1039	 0,56148467831005 
1040	 0,552640915632037 
1041	 0,54415554586045 
1042	 0,550668515883716 
1043	 0,551748110321814 
1044	 0,549951845318595 
1045	 0,552342973990537 
1046	 0,555631048867029 
1047	 0,559355244722997 
1048	 0,563667863867221 
1049	 0,566553249013793 
1050	 0,566703569909938 
1051	 0,561220890134651 
1052	 0,555019146259819 
1053	 0,552785592341828 
1054	 0,565588708207211 
1055	 0,573353103163223 
1056	 0,56173219830045 
1057	 0,565607565033546 
1058	 0,57564997717175 
1059	 0,571806932525469 
1060	 0,567759309300896 
1061	 0,565990182877708 
1062	 0,565762018633414 
1063	 0,559830154798917 
1064	 0,551441435503209 
1065	 0,560910660391892 
1066	 0,566816925657311 
1067	 0,560235573465998 
1068	 0,548723783130099 
1069	 0,54655595113522 
1070	 0,561722321098081 
1071	 0,567379489105386 
1072	 0,569786136446066 
1073	 0,578419533136906 
1074	 0,578195115104939 
1075	 0,574046714158025 
