Wavelength	SCORFF200075.asd
325	-5,74289384879098E-02 
326	-1,71673274372268E-02 
327	 2,51422463556292E-02 
328	 7,49873298734686E-02 
329	 7,06516527801174E-02 
330	 2,28606832981097E-02 
331	-5,99520022114164E-02 
332	-5,11546229226815E-02 
333	-3,47443029871678E-04 
334	-6,14261408010711E-02 
335	-8,83148853350633E-03 
336	 0,129282678463006 
337	 9,25610258809898E-02 
338	-4,95742868871375E-02 
339	-0,177820620751001 
340	-7,08157404643096E-02 
341	 0,1072684155503 
342	 3,68209203242736E-02 
343	 1,85383399242755E-02 
344	 9,58747415180057E-02 
345	 4,91108739098837E-02 
346	-1,05403983732333E-02 
347	 3,12589563990596E-02 
348	 4,62865072348176E-02 
349	 3,76070812737096E-02 
350	 7,02778915236571E-02 
351	 0,105488435067133 
352	 0,111999485535153 
353	 0,056671689849698 
354	-1,7663666343445E-03 
355	 6,77490416199563E-03 
356	 3,13590062675649E-02 
357	 5,20837002001971E-02 
358	 6,52191229728154E-02 
359	 6,65452049071691E-02 
360	 5,25230394053066E-02 
361	 9,98953277672721E-03 
362	-1,96646659517791E-02 
363	 2,22985513807153E-02 
364	 4,09425876544449E-02 
365	 0,031769305696443 
366	 5,55576841820699E-02 
367	 0,06659003562466 
368	 3,99951188568443E-02 
369	 2,49636476414183E-03 
370	-1,94906561735396E-02 
371	 2,02076546513181E-02 
372	 0,03575083848335 
373	 1,64834297530445E-02 
374	 2,88358034662772E-02 
375	 3,93047672296401E-02 
376	 2,46307544045611E-02 
377	 1,37683158679287E-02 
378	 1,42600358474168E-02 
379	 3,22809144542525E-02 
380	 3,79111473345501E-02 
381	 2,70354202604091E-02 
382	 4,06455811447985E-02 
383	 4,59516633902248E-02 
384	 1,54885542682499E-02 
385	 1,83614595206742E-02 
386	 4,63102160721831E-02 
387	 4,63427693552563E-02 
388	 3,92978827463913E-02 
389	 0,033854543762024 
390	 3,15770933177504E-02 
391	 2,92553811564532E-02 
392	 2,33202109198469E-02 
393	 1,04131865030017E-02 
394	-9,52380405318855E-04 
395	 1,93347154231903E-02 
396	 3,18510722993611E-02 
397	 0,02037929686773 
398	 1,48897342167371E-02 
399	 0,018272072003213 
400	 3,00644716298723E-02 
401	 2,70758599709781E-02 
402	 1,00020129703454E-02 
403	 2,09060636625081E-03 
404	 9,18308596550326E-03 
405	 0,030737159194713 
406	 2,92061560068726E-02 
407	 1,59845386429923E-02 
408	 2,48544131598776E-02 
409	 3,24379072054212E-02 
410	 3,21209003275315E-02 
411	 2,70910472919317E-02 
412	 0,019500318015011 
413	 1,18748753734625E-02 
414	 1,96165486655097E-02 
415	 3,41069310762433E-02 
416	 2,77366510502311E-02 
417	 2,26688769614437E-02 
418	 2,60732662223952E-02 
419	 2,20065621688119E-02 
420	 1,66241216518931E-02 
421	 1,93178501394583E-02 
422	 2,19434534202342E-02 
423	 2,30964746292652E-02 
424	 2,51771919848495E-02 
425	 2,58984582094336E-02 
426	 2,41468600433452E-02 
427	 0,022576387370162 
428	 2,17289705237329E-02 
429	 2,16920065657056E-02 
430	 2,22197121648788E-02 
431	 2,31640707647868E-02 
432	 2,46776061431554E-02 
433	 2,51186587650991E-02 
434	 2,33840761086959E-02 
435	 2,54163977232719E-02 
436	 2,93713199450929E-02 
437	 2,80347502345519E-02 
438	 2,62788132271025E-02 
439	 2,60084993339288E-02 
440	 2,62020540156585E-02 
441	 2,62133572582015E-02 
442	 2,53394132003138E-02 
443	 2,46076330199553E-02 
444	 2,46757950029492E-02 
445	 2,70800809949247E-02 
446	 2,80830759969231E-02 
447	 2,57913941626566E-02 
448	 0,025200635458717 
449	 2,64184552480311E-02 
450	 2,84623140093293E-02 
451	 2,86157944431527E-02 
452	 2,69349971479104E-02 
453	 2,86994022236388E-02 
454	 2,90711107795225E-02 
455	 2,38392337897656E-02 
456	 2,17051767842995E-02 
457	 2,33086979886911E-02 
458	 2,55389421615061E-02 
459	 2,78902709534597E-02 
460	 2,96114649238846E-02 
461	 2,90647309956112E-02 
462	 2,78303357427638E-02 
463	 0,028176812118063 
464	 2,81368003607571E-02 
465	 2,70828344569422E-02 
466	 2,38802734946326E-02 
467	 2,36353890083028E-02 
468	 2,89433169715952E-02 
469	 3,08474675215536E-02 
470	 2,99735402874856E-02 
471	 3,02666089890448E-02 
472	 3,01104520339051E-02 
473	 2,96553847767089E-02 
474	 3,13887639895907E-02 
475	 3,32640628700159E-02 
476	 3,31440642578173E-02 
477	 0,030915701402965 
478	 2,81449390768895E-02 
479	 2,91098858528644E-02 
480	 0,02988759268616 
481	 0,028874624557288 
482	 2,85629344085679E-02 
483	 0,029173515624944 
484	 3,07202524763954E-02 
485	 3,05819209750278E-02 
486	 0,028600517594159 
487	 2,66774023821889E-02 
488	 2,69778841606353E-02 
489	 3,06218946602624E-02 
490	 3,15084266892973E-02 
491	 3,02742226235271E-02 
492	 3,08870380255336E-02 
493	 3,09187707080773E-02 
494	 2,97510840809869E-02 
495	 2,80970331443829E-02 
496	 2,74368689070162E-02 
497	 2,92783980727044E-02 
498	 3,07739602860087E-02 
499	 3,12668644322246E-02 
500	 3,10502051526463E-02 
501	 3,09251916104706E-02 
502	 3,12915778700796E-02 
503	 3,11210124741511E-02 
504	 3,08800521428165E-02 
505	 3,15762346754522E-02 
506	 3,26378730283458E-02 
507	 3,33485444920584E-02 
508	 3,13813332109809E-02 
509	 2,98095222050718E-02 
510	 0,031324961420394 
511	 3,23893013539757E-02 
512	 3,27528171076048E-02 
513	 3,38002003768144E-02 
514	 3,39924406300433E-02 
515	 3,29796456544286E-02 
516	 3,30111329740989E-02 
517	 3,34119458087179E-02 
518	 3,28913442759243E-02 
519	 3,32370116907164E-02 
520	 3,44823433550789E-02 
521	 3,53008231418273E-02 
522	 3,49881920549372E-02 
523	 3,33364640114322E-02 
524	 3,35256048453992E-02 
525	 3,52069151764926E-02 
526	 3,67248405800801E-02 
527	 3,66115081737641E-02 
528	 3,48812883835868E-02 
529	 3,50485818054098E-02 
530	 3,60470016228011E-02 
531	 3,63456016164396E-02 
532	 3,58260691584077E-02 
533	 3,49341541854462E-02 
534	 3,51187864735171E-02 
535	 3,58197835253241E-02 
536	 3,65951691842831E-02 
537	 3,66941073979206E-02 
538	 3,64644275366634E-02 
539	 0,03678206913518 
540	 3,67881010588834E-02 
541	 0,036438850595043 
542	 3,67365816790585E-02 
543	 0,037172920065038 
544	 3,72273414047597E-02 
545	 3,75227104931121E-02 
546	 0,038011465569198 
547	 3,82646600220178E-02 
548	 3,83369161105935E-02 
549	 3,82732735455235E-02 
550	 3,82369724813674E-02 
551	 3,82846337773515E-02 
552	 3,84550723204228E-02 
553	 0,038781272456279 
554	 3,91653501248902E-02 
555	 3,93038950332318E-02 
556	 3,90749245857748E-02 
557	 3,84647732948751E-02 
558	 3,84851302448208E-02 
559	 3,90232720189453E-02 
560	 3,93865402139056E-02 
561	 3,94191400260663E-02 
562	 0,039047958837904 
563	 3,84942511516423E-02 
564	 3,80330795156229E-02 
565	 3,79661676296195E-02 
566	 0,038640735276071 
567	 0,039718662913041 
568	 3,97855413524605E-02 
569	 3,96969691811524E-02 
570	 0,040025866323295 
571	 4,01024968202041E-02 
572	 4,01172938642048E-02 
573	 4,06655605934972E-02 
574	 4,13725376519587E-02 
575	 4,20608745974041E-02 
576	 4,26727906923356E-02 
577	 4,28517239322527E-02 
578	 0,042251623600154 
579	 4,22529913742929E-02 
580	 4,29789359055339E-02 
581	 4,38038422867732E-02 
582	 4,40209228659863E-02 
583	 4,34268222804594E-02 
584	 4,40294344990643E-02 
585	 4,52697998138834E-02 
586	 4,57610491839211E-02 
587	 4,55057651032085E-02 
588	 4,49066685734284E-02 
589	 4,58207365088752E-02 
590	 4,70264790249035E-02 
591	 4,72976177344952E-02 
592	 4,68795934869106E-02 
593	 4,62877185861218E-02 
594	 4,67909669803426E-02 
595	 4,72867754861338E-02 
596	 4,72977633648535E-02 
597	 0,04727841975188 
598	 4,75114572859296E-02 
599	 0,048391937012853 
600	 0,048069895883732 
601	 4,66700172948572E-02 
602	 4,67983386730766E-02 
603	 4,72460380650109E-02 
604	 4,70605872664468E-02 
605	 0,047276082776942 
606	 4,75815050716377E-02 
607	 4,67676679725997E-02 
608	 4,62685267632465E-02 
609	 4,64856258409521E-02 
610	 4,62519238107754E-02 
611	 4,59208485158216E-02 
612	 4,60383545845558E-02 
613	 4,61400301165783E-02 
614	 4,61191736889279E-02 
615	 4,60212066607673E-02 
616	 4,59528280713653E-02 
617	 4,59286547572187E-02 
618	 4,53627241717674E-02 
619	 4,47169900741964E-02 
620	 4,50261936765125E-02 
621	 4,56183177577615E-02 
622	 4,61481536817316E-02 
623	 4,61724136391538E-02 
624	 4,59562905614624E-02 
625	 0,045814293855559 
626	 4,58523674749843E-02 
627	 4,60306543938638E-02 
628	 4,61287966182615E-02 
629	 4,62279034237402E-02 
630	 4,63556794053286E-02 
631	 4,64161320668338E-02 
632	 4,65112724479621E-02 
633	 4,68100876927229E-02 
634	 4,72789735908338E-02 
635	 4,78081960055503E-02 
636	 4,80455178664722E-02 
637	 4,81516454599645E-02 
638	 0,048279743127494 
639	 0,048391621383101 
640	 4,86055260364201E-02 
641	 4,92564400703382E-02 
642	 4,97492210565414E-02 
643	 4,98539478507241E-02 
644	 4,98508578228683E-02 
645	 4,99303763852568E-02 
646	 5,02998610497755E-02 
647	 5,03608092441613E-02 
648	 5,01189685995704E-02 
649	 5,01673679753153E-02 
650	 0,050209826918169 
651	 5,00503474974826E-02 
652	 4,98029230177417E-02 
653	 4,95532780928726E-02 
654	 0,049461334003487 
655	 4,92223811311027E-02 
656	 4,87406695611773E-02 
657	 0,048139963974827 
658	 4,74336751695172E-02 
659	 4,66456108473618E-02 
660	 4,62341050044116E-02 
661	 4,60221983919704E-02 
662	 4,52037339741421E-02 
663	 4,42938887396648E-02 
664	 4,36896008283906E-02 
665	 4,42245021000928E-02 
666	 4,49157751970037E-02 
667	 4,41013635678281E-02 
668	 4,35590446562847E-02 
669	 4,36545612182585E-02 
670	 4,37125525221813E-02 
671	 4,36519896743753E-02 
672	 4,34395545902402E-02 
673	 4,33378325734222E-02 
674	 4,34771901824952E-02 
675	 4,41990337308278E-02 
676	 0,044153734380523 
677	 4,31376481155373E-02 
678	 4,30992992029824E-02 
679	 4,37091522362089E-02 
680	 4,43685518606075E-02 
681	 4,48968383066963E-02 
682	 4,51293464261764E-02 
683	 0,04477632313754 
684	 4,45629637982461E-02 
685	 4,49844049568679E-02 
686	 4,61318455665515E-02 
687	 4,74690119770496E-02 
688	 0,048057819893477 
689	 4,86318528790802E-02 
690	 4,94867547982486E-02 
691	 5,07913172936598E-02 
692	 5,23981134447671E-02 
693	 0,054164425501732 
694	 0,056113586476904 
695	 5,83011044829377E-02 
696	 6,08468300898676E-02 
697	 6,37516326731906E-02 
698	 6,69508907637863E-02 
699	 7,00482959290081E-02 
700	 7,32999713081516E-02 
701	 7,70829346979384E-02 
702	 8,09508024271742E-02 
703	 8,48498294449148E-02 
704	 8,91510764493662E-02 
705	 9,30622710115881E-02 
706	 9,61525658835733E-02 
707	 9,93694901511787E-02 
708	 0,102845055076677 
709	 0,10656849239878 
710	 0,109946340455067 
711	 0,112766107740552 
712	 0,115006786237583 
713	 0,117502027918966 
714	 0,12091772042979 
715	 0,123355244554553 
716	 0,124979392333662 
717	 0,127214603905471 
718	 0,129435145383214 
719	 0,131356249711369 
720	 0,132737748435901 
721	 0,134072571089767 
722	 0,13601210891255 
723	 0,137371676471354 
724	 0,138120653721019 
725	 0,139203165087672 
726	 0,140118067035632 
727	 0,140649718666023 
728	 0,141687896282649 
729	 0,142834657104096 
730	 0,1431375338765 
731	 0,143768177640988 
732	 0,144863762270477 
733	 0,145422862138224 
734	 0,145713026021179 
735	 0,146013823295113 
736	 0,146392331383558 
737	 0,14692600161967 
738	 0,147816908391772 
739	 0,148364516433399 
740	 0,148378758432478 
741	 0,148516616887371 
742	 0,148809888318824 
743	 0,149224805987745 
744	 0,149686073766607 
745	 0,150068199078077 
746	 0,150089996998271 
747	 0,150049448522423 
748	 0,15012727909471 
749	 0,150294216701321 
750	 0,150578306894339 
751	 0,151025680287465 
752	 0,15138521879446 
753	 0,151626190528853 
754	 0,15198736397942 
755	 0,152200299124388 
756	 0,152105387885036 
757	 0,152101453005065 
758	 0,152349186208735 
759	 0,153073110480016 
760	 0,153465189467712 
761	 0,153398443336653 
762	 0,153738013457713 
763	 0,154112164535919 
764	 0,154156200320442 
765	 0,154402253240101 
766	 0,154753756550537 
767	 0,154666778375937 
768	 0,15473159286045 
769	 0,155096997226885 
770	 0,155119068600973 
771	 0,155190690047707 
772	 0,155809949657219 
773	 0,155887176317239 
774	 0,155565583896191 
775	 0,156126469129588 
776	 0,156437558301158 
777	 0,156002532597528 
778	 0,155724073357132 
779	 0,155707353549841 
780	 0,155938564970857 
781	 0,156325803808191 
782	 0,15671169508007 
783	 0,156679379964042 
784	 0,156767894013897 
785	 0,157269813167491 
786	 0,157472987263732 
787	 0,157372712637418 
788	 0,157118105057569 
789	 0,157210283127907 
790	 0,157684936103402 
791	 0,157956353210238 
792	 0,158046526484041 
793	 0,158019070475624 
794	 0,158248138557287 
795	 0,158598168784633 
796	 0,15864326935431 
797	 0,15861749253767 
798	 0,158612510561536 
799	 0,158671711703937 
800	 0,158769804592319 
801	 0,158900114593373 
802	 0,159445113909459 
803	 0,160058031144774 
804	 0,159654243170884 
805	 0,159468845331536 
806	 0,159847828275856 
807	 0,159932749097191 
808	 0,159966508816777 
809	 0,160244972829393 
810	 0,160112469682429 
811	 0,159838623516819 
812	 0,160630643023987 
813	 0,160924911640937 
814	 0,16030744598909 
815	 0,160639535773354 
816	 0,16120540292408 
817	 0,160987042299505 
818	 0,160717178373533 
819	 0,16067023757125 
820	 0,161182342589151 
821	 0,161581958442771 
822	 0,161556112397376 
823	 0,161428609114123 
824	 0,161400907040912 
825	 0,161680410699914 
826	 0,1621055319956 
827	 0,16250234001784 
828	 0,16250269850992 
829	 0,162437407790891 
830	 0,162452025865748 
831	 0,162200730168717 
832	 0,162059131389989 
833	 0,16256186714564 
834	 0,163218937529947 
835	 0,163741473528103 
836	 0,163701204360865 
837	 0,163528477354593 
838	 0,163482457177568 
839	 0,16350801350256 
840	 0,163600497723064 
841	 0,163753305717985 
842	 0,163614660866574 
843	 0,163322581424502 
844	 0,163643592172896 
845	 0,163968391669442 
846	 0,163947928347896 
847	 0,163705403636686 
848	 0,163465015711934 
849	 0,1635152968952 
850	 0,163622994604759 
851	 0,163633547085877 
852	 0,163263673531255 
853	 0,162828067866649 
854	 0,162604534680455 
855	 0,163152600371115 
856	 0,16380011377744 
857	 0,163570509110054 
858	 0,163310981108428 
859	 0,16318781465429 
860	 0,162995074755755 
861	 0,162939972395986 
862	 0,163149683003076 
863	 0,163708855711124 
864	 0,164202105286509 
865	 0,164105145968548 
866	 0,163977936217645 
867	 0,163903158155471 
868	 0,16365745960013 
869	 0,163542980167812 
870	 0,163701753564191 
871	 0,164003577115725 
872	 0,164329060733225 
873	 0,164552119113973 
874	 0,164655245404779 
875	 0,16466731901751 
876	 0,164637689055019 
877	 0,164866115749527 
878	 0,165366399590257 
879	 0,165391852281093 
880	 0,165388489545309 
881	 0,165846411240509 
882	 0,16554033590657 
883	 0,164890408138899 
884	 0,165632961866108 
885	 0,166427470227848 
886	 0,166772173367497 
887	 0,166808294432838 
888	 0,166746828488064 
889	 0,16677203149699 
890	 0,166579826157961 
891	 0,1663287043366 
892	 0,166432191701738 
893	 0,166829702993918 
894	 0,167332633017427 
895	 0,167333864988859 
896	 0,166856809502098 
897	 0,16604430793844 
898	 0,165772944602632 
899	 0,165952877177895 
900	 0,166147625093024 
901	 0,16626619588291 
902	 0,16624751811319 
903	 0,166002234264535 
904	 0,166263365381587 
905	 0,167154396513701 
906	 0,16597714495801 
907	 0,164371156224574 
908	 0,16507733929665 
909	 0,165483758025667 
910	 0,16543850554061 
911	 0,166666166297457 
912	 0,167206585390424 
913	 0,166388266905081 
914	 0,166120588562515 
915	 0,166480078503481 
916	 0,167299218391273 
917	 0,167627582583111 
918	 0,167485544786174 
919	 0,167566322588913 
920	 0,1671591513734 
921	 0,166318065295454 
922	 0,166333131533649 
923	 0,166648655560549 
924	 0,166771465541708 
925	 0,167242086876224 
926	 0,167484932569145 
927	 0,166323002256332 
928	 0,166167891407437 
929	 0,167248053104836 
930	 0,167658869640104 
931	 0,167813327358529 
932	 0,167885950653804 
933	 0,16742379156148 
934	 0,16693227164553 
935	 0,167090887807104 
936	 0,167708847585866 
937	 0,168145059689287 
938	 0,16660558286602 
939	 0,166073886341458 
940	 0,167253826451943 
941	 0,167249072947052 
942	 0,166727760175936 
943	 0,166442663146306 
944	 0,166292286684361 
945	 0,16632963895459 
946	 0,166655296563633 
947	 0,166696947951404 
948	 0,166322753105616 
949	 0,165754614058995 
950	 0,165208005328502 
951	 0,16489024922387 
952	 0,165224966570363 
953	 0,165271817032405 
954	 0,163942779522979 
955	 0,163004769271574 
956	 0,162958396406075 
957	 0,164295602451026 
958	 0,163557694496827 
959	 0,160652193495616 
960	 0,161148138481085 
961	 0,162619065104661 
962	 0,163019326230231 
963	 0,162944503435617 
964	 0,162532837842562 
965	 0,16193849504612 
966	 0,161635909301333 
967	 0,16183898905229 
968	 0,16294931317959 
969	 0,162657327995471 
970	 0,160755062079929 
971	 0,162141148513054 
972	 0,163132948076567 
973	 0,160559707370659 
974	 0,160457559725255 
975	 0,162311848951584 
976	 0,163383369725855 
977	 0,163474213555249 
978	 0,162839594576095 
979	 0,162861714501724 
980	 0,163109941275323 
981	 0,163434614251389 
982	 0,164276639372712 
983	 0,164534878209031 
984	 0,163280274680637 
985	 0,16310607714726 
986	 0,164159908995987 
987	 0,165810521651992 
988	 0,165537054676133 
989	 0,163501320115224 
990	 0,163315243062085 
991	 0,163077047146847 
992	 0,162189948660615 
993	 0,163053209142392 
994	 0,165126425770474 
995	 0,167365144210431 
996	 0,166349856818406 
997	 0,164134286210049 
998	 0,165949318652313 
999	 0,167766307087107 
1000	 0,168380337258813 
1001	 0,167877742616747 
1002	 0,166610842248051 
1003	 0,165238542661064 
1004	 0,165986892329264 
1005	 0,167196391959992 
1006	 0,167105162530391 
1007	 0,166757984857175 
1008	 0,166920410516818 
1009	 0,168637621100969 
1010	 0,16914591030552 
1011	 0,167810907332317 
1012	 0,164719732866895 
1013	 0,164928376047324 
1014	 0,169307472367581 
1015	 0,169783797654277 
1016	 0,167869708637482 
1017	 0,165887451199481 
1018	 0,169167030648142 
1019	 0,17269499499924 
1020	 0,16814145517982 
1021	 0,167586442858718 
1022	 0,171770641467126 
1023	 0,174832681792728 
1024	 0,174722059276192 
1025	 0,171470720226548 
1026	 0,169598422818117 
1027	 0,170166423501823 
1028	 0,173149172176759 
1029	 0,173775305478927 
1030	 0,173115498264701 
1031	 0,173076639626201 
1032	 0,173003763653334 
1033	 0,172476855441168 
1034	 0,17072131994205 
1035	 0,171906809192827 
1036	 0,174775124524102 
1037	 0,170054901078103 
1038	 0,16862328719481 
1039	 0,173541845806139 
1040	 0,173455088637102 
1041	 0,16979119353713 
1042	 0,16536941620446 
1043	 0,167820878130052 
1044	 0,173217180956353 
1045	 0,174644281377723 
1046	 0,175942698176053 
1047	 0,177811428951191 
1048	 0,180193323429104 
1049	 0,179460536455134 
1050	 0,176826010686716 
1051	 0,182041709202715 
1052	 0,183945094750628 
1053	 0,178418819267357 
1054	 0,175541128029603 
1055	 0,175964412963139 
1056	 0,17899486971818 
1057	 0,180657467399059 
1058	 0,177421493721123 
1059	 0,166279438367111 
1060	 0,167028692072623 
1061	 0,175746405988076 
1062	 0,173754751031682 
1063	 0,171316700787791 
1064	 0,171336032807268 
1065	 0,1730198683039 
1066	 0,17965896252078 
1067	 0,185615692475016 
1068	 0,152717840812959 
1069	 0,137693546705797 
1070	 0,177698121686371 
1071	 0,185992455198168 
1072	 0,176912595988256 
1073	 0,177217068529703 
1074	 0,175879469145764 
1075	 0,172170101975627 
