Wavelength	SCORFF200074.asd
325	-0,157961787998182 
326	 2,03568161024703E-02 
327	 7,82052304139982E-02 
328	-1,67557114665353E-02 
329	-5,33632228888342E-02 
330	-0,067952677038666 
331	-9,45656954025155E-02 
332	-3,08163750763763E-02 
333	 4,27881355575302E-02 
334	-3,51514559857191E-02 
335	-7,10073895675126E-02 
336	-1,56254517593315E-02 
337	-9,47372721161952E-03 
338	-0,029933687192254 
339	-5,15717326386683E-02 
340	-0,037755363159466 
341	-1,92646789141812E-02 
342	-7,77877484754769E-02 
343	-0,043250515187691 
344	 7,40571189635968E-02 
345	 6,45530523255814E-02 
346	 6,54243127555724E-03 
347	-1,86250797152566E-02 
348	 1,88125910314422E-02 
349	 0,077277848028509 
350	 5,65619997766445E-02 
351	 3,72144871939524E-02 
352	 4,58533075124078E-02 
353	 1,54592122939125E-02 
354	-0,014971258276017 
355	 5,08157009697473E-03 
356	 2,82104721666408E-02 
357	 4,12879737416553E-02 
358	 5,51893823288192E-02 
359	 6,07630469596489E-02 
360	 0,051696667600524 
361	 5,50886998424979E-03 
362	-2,56122236077887E-02 
363	 3,35570393843368E-02 
364	 5,85599270434886E-02 
365	 4,01253460561724E-02 
366	 4,03268293150186E-02 
367	 4,80509666969819E-02 
368	 5,14168929910213E-02 
369	 6,93592833246901E-03 
370	-4,33347887982596E-02 
371	-4,94471024844486E-03 
372	 1,40833482435589E-02 
373	-8,03059122514858E-04 
374	 2,48134684111138E-02 
375	 4,58175579474653E-02 
376	 3,21251161485284E-02 
377	 2,57120752425841E-02 
378	 0,026082174293878 
379	 1,62852797281289E-02 
380	 7,34489416598957E-03 
381	 4,64357619069173E-03 
382	 1,60100995031696E-02 
383	 2,46008800321077E-02 
384	 1,68751608712751E-02 
385	 1,61669494466154E-02 
386	 2,19061608023157E-02 
387	 2,09605022485468E-02 
388	 2,16042383324271E-02 
389	 2,40689192403964E-02 
390	 9,75418065836268E-03 
391	 1,91276096064646E-03 
392	 2,96914840252136E-02 
393	 2,59218450281961E-02 
394	-2,88011782404628E-03 
395	 8,04686053553573E-03 
396	 0,020988741163016 
397	 1,87575703727574E-02 
398	 1,61446564353298E-02 
399	 1,97639328857204E-02 
400	 3,82742194545216E-02 
401	 3,29952625682942E-02 
402	 7,18406749947546E-03 
403	 9,00162707732819E-03 
404	 0,020123590945547 
405	 2,59446484472157E-02 
406	 2,03136076926039E-02 
407	 1,16243978916203E-02 
408	 1,86342003748092E-02 
409	 2,74091037530945E-02 
410	 3,23659475872001E-02 
411	 3,04668587535252E-02 
412	 2,34440781174892E-02 
413	 1,39128408231623E-02 
414	 2,00806994612244E-02 
415	 3,41055233171616E-02 
416	 2,92134901182092E-02 
417	 0,021765341597427 
418	 1,91841828257368E-02 
419	 2,21318165743646E-02 
420	 2,58647638893182E-02 
421	 2,42721771410568E-02 
422	 2,59013436416131E-02 
423	 2,97980744397738E-02 
424	 2,66625209165909E-02 
425	 2,32866426431011E-02 
426	 0,023554798692384 
427	 0,023681209877776 
428	 2,39240207935744E-02 
429	 2,57427283274865E-02 
430	 2,67747327848369E-02 
431	 2,64216960069106E-02 
432	 2,53904132855344E-02 
433	 2,48913284845376E-02 
434	 2,59708814393123E-02 
435	 2,90359846262176E-02 
436	 3,17728743743929E-02 
437	 2,83602595871446E-02 
438	 0,025206265853455 
439	 0,02484550695662 
440	 2,50036480064243E-02 
441	 2,46723515892249E-02 
442	 2,28454962290381E-02 
443	 0,02406972963845 
444	 2,76470439377811E-02 
445	 2,76787117276244E-02 
446	 2,69578775200786E-02 
447	 2,71333514538693E-02 
448	 2,65961992109294E-02 
449	 2,61042838353852E-02 
450	 2,74005340472086E-02 
451	 2,84474460306524E-02 
452	 2,87094474810694E-02 
453	 0,029206665579977 
454	 2,87274826230339E-02 
455	 2,63422016408492E-02 
456	 2,60036048629745E-02 
457	 0,027246114681744 
458	 2,64646279792292E-02 
459	 2,66661518047737E-02 
460	 2,86499732420242E-02 
461	 2,93874833708364E-02 
462	 2,92522516995368E-02 
463	 2,91747337030803E-02 
464	 2,74631824261811E-02 
465	 2,48431532626238E-02 
466	 2,48154810606484E-02 
467	 2,61992754386704E-02 
468	 2,78589579380533E-02 
469	 2,75443463318398E-02 
470	 0,026277067249181 
471	 2,67370266358735E-02 
472	 2,73272670414591E-02 
473	 2,77018913654291E-02 
474	 2,86219388763586E-02 
475	 2,95689576707279E-02 
476	 2,99919923362236E-02 
477	 2,96842600990315E-02 
478	 2,90500057734535E-02 
479	 2,95207018085443E-02 
480	 0,028638135705403 
481	 2,60247029159603E-02 
482	 2,72655614297468E-02 
483	 3,02841938348981E-02 
484	 3,12768757038058E-02 
485	 3,11586317657702E-02 
486	 3,02272666676414E-02 
487	 2,84932014933023E-02 
488	 2,88492981314946E-02 
489	 3,28031348947181E-02 
490	 3,19591345204497E-02 
491	 2,81334449417912E-02 
492	 2,87430140803949E-02 
493	 2,85295729382604E-02 
494	 2,65775139002642E-02 
495	 2,75106873071668E-02 
496	 2,92770014775816E-02 
497	 2,92453434586013E-02 
498	 3,05311745621105E-02 
499	 3,25999454768831E-02 
500	 3,18523031200066E-02 
501	 3,07332133261878E-02 
502	 3,05905609970423E-02 
503	 0,029887608977461 
504	 2,99689416920318E-02 
505	 3,36987993790984E-02 
506	 0,035168044864051 
507	 3,31730546399578E-02 
508	 3,08003892537709E-02 
509	 2,99262124296943E-02 
510	 3,18804373709014E-02 
511	 0,032417871845942 
512	 3,18690458062727E-02 
513	 3,34691626295503E-02 
514	 3,47221630805524E-02 
515	 3,45924303673305E-02 
516	 3,38438743532873E-02 
517	 3,31273890439959E-02 
518	 3,31937211698039E-02 
519	 3,35130741964712E-02 
520	 3,40541029464384E-02 
521	 0,035425737854106 
522	 3,59855446394087E-02 
523	 3,47933752454736E-02 
524	 3,51775638025328E-02 
525	 3,66218034270756E-02 
526	 0,036852844459759 
527	 3,64440032441124E-02 
528	 3,58569485833312E-02 
529	 3,67640614216771E-02 
530	 3,77198217011446E-02 
531	 3,69717598727534E-02 
532	 3,58090382044956E-02 
533	 3,51094791469513E-02 
534	 3,66231092524874E-02 
535	 3,78666392508832E-02 
536	 3,74449403458592E-02 
537	 3,70055156551037E-02 
538	 3,68100016300137E-02 
539	 3,68797763867216E-02 
540	 3,71293991741608E-02 
541	 3,74491226796342E-02 
542	 0,037556888316026 
543	 3,75492651352584E-02 
544	 3,75506149816104E-02 
545	 3,78494378718778E-02 
546	 3,83386086900676E-02 
547	 3,85767638892719E-02 
548	 3,87067062400034E-02 
549	 0,03876912717362 
550	 3,85402312126512E-02 
551	 0,03844684192078 
552	 3,91806943738695E-02 
553	 3,97724618235303E-02 
554	 3,98571400975568E-02 
555	 3,91973896108603E-02 
556	 3,88139897015162E-02 
557	 3,94644630055682E-02 
558	 3,94608025245067E-02 
559	 3,89786906152316E-02 
560	 3,93033302290803E-02 
561	 3,93075882826653E-02 
562	 3,87352416330222E-02 
563	 3,89477634084578E-02 
564	 3,91313712003884E-02 
565	 3,80566914547113E-02 
566	 3,82488106415829E-02 
567	 3,97627822328385E-02 
568	 4,04059528847767E-02 
569	 4,08967912448055E-02 
570	 4,16249553295404E-02 
571	 4,12604460378201E-02 
572	 4,05916344638829E-02 
573	 4,18220138094837E-02 
574	 4,23657216985985E-02 
575	 4,17845250385289E-02 
576	 4,30201694170572E-02 
577	 4,41368693424375E-02 
578	 4,28339274528708E-02 
579	 4,25697911551263E-02 
580	 4,36481115102403E-02 
581	 0,044415192869861 
582	 4,49200372977683E-02 
583	 4,51434571903932E-02 
584	 4,50305716895911E-02 
585	 4,50499911373053E-02 
586	 0,046076379398448 
587	 4,62845303127663E-02 
588	 4,55659455610836E-02 
589	 4,60903081026336E-02 
590	 4,70182473981893E-02 
591	 4,74792037338696E-02 
592	 4,78796981249854E-02 
593	 4,81096039879764E-02 
594	 4,76641735127343E-02 
595	 4,73317025913807E-02 
596	 4,74799034852311E-02 
597	 4,77141326594746E-02 
598	 4,80061244079152E-02 
599	 4,84109951904752E-02 
600	 4,81260784879677E-02 
601	 4,72538301083861E-02 
602	 4,70145443059248E-02 
603	 4,72754589477527E-02 
604	 4,78539827779535E-02 
605	 4,81633530645589E-02 
606	 4,81572356801628E-02 
607	 4,80932489387807E-02 
608	 4,76399593795096E-02 
609	 4,68768478106949E-02 
610	 4,68784101046502E-02 
611	 4,71524660519226E-02 
612	 4,69825402969781E-02 
613	 4,66281424687952E-02 
614	 4,62875152272348E-02 
615	 4,64123765183999E-02 
616	 4,66470087458946E-02 
617	 4,67076567012929E-02 
618	 4,61934924821631E-02 
619	 4,57352898802479E-02 
620	 4,67399709278234E-02 
621	 0,047348163322867 
622	 4,70789882777714E-02 
623	 4,69162821620309E-02 
624	 4,67610176801161E-02 
625	 4,64683240549731E-02 
626	 4,63184302416695E-02 
627	 4,64108563741351E-02 
628	 4,68746128940983E-02 
629	 4,72012650731613E-02 
630	 4,71835203247767E-02 
631	 4,75217324246613E-02 
632	 4,79033115120685E-02 
633	 4,76903773027143E-02 
634	 4,74631052117755E-02 
635	 4,75744473171077E-02 
636	 4,87467365497126E-02 
637	 4,96357406153834E-02 
638	 4,91768146108593E-02 
639	 4,91485468951857E-02 
640	 4,97108282679582E-02 
641	 5,04530387308386E-02 
642	 5,09128561392118E-02 
643	 5,09503323467066E-02 
644	 5,12252106904281E-02 
645	 5,15714134958699E-02 
646	 5,17003614059451E-02 
647	 0,051177699185421 
648	 0,050374965766662 
649	 0,050984979156668 
650	 5,14510424949713E-02 
651	 5,07882130855893E-02 
652	 5,02148669577685E-02 
653	 4,98571086048578E-02 
654	 0,049560434673834 
655	 4,95136039844801E-02 
656	 4,96062111306778E-02 
657	 4,91307801275911E-02 
658	 4,82750266942042E-02 
659	 4,73093652838002E-02 
660	 4,68267464682054E-02 
661	 4,67385373586095E-02 
662	 4,64288826265005E-02 
663	 4,57203874671227E-02 
664	 4,47140890495054E-02 
665	 4,48824282679676E-02 
666	 4,55474530481023E-02 
667	 4,54030644043871E-02 
668	 0,045142759210865 
669	 4,49409926704717E-02 
670	 4,48110318116125E-02 
671	 4,44637879668051E-02 
672	 4,37538958848498E-02 
673	 4,38118531248707E-02 
674	 4,43929080957652E-02 
675	 4,44889233727334E-02 
676	 4,42892236419237E-02 
677	 4,39589204813728E-02 
678	 4,41045524871671E-02 
679	 4,46688979877399E-02 
680	 4,55030466784138E-02 
681	 4,55440596215027E-02 
682	 4,49808900613509E-02 
683	 4,52394271673854E-02 
684	 4,58285387607102E-02 
685	 4,64610091890053E-02 
686	 4,71816347945652E-02 
687	 4,80424885274112E-02 
688	 4,91877960074714E-02 
689	 4,99061527298711E-02 
690	 5,03314059088601E-02 
691	 5,20503326323024E-02 
692	 5,39445011266119E-02 
693	 5,50371509350148E-02 
694	 5,69623375972948E-02 
695	 5,95944074975625E-02 
696	 6,17528112861752E-02 
697	 6,43922114607158E-02 
698	 6,77829629316592E-02 
699	 7,10564000149498E-02 
700	 7,44510625285593E-02 
701	 7,83807766618233E-02 
702	 8,21738912777708E-02 
703	 8,58142049863062E-02 
704	 8,99219297568828E-02 
705	 9,39265965938796E-02 
706	 9,74807857383467E-02 
707	 0,100993464094479 
708	 0,104456628960496 
709	 0,107745117588934 
710	 0,110768100711864 
711	 0,11362642186797 
712	 0,116885351053744 
713	 0,120021058172472 
714	 0,122534934905773 
715	 0,124755892377863 
716	 0,126806853731269 
717	 0,128823764776428 
718	 0,130745664338367 
719	 0,132530032800518 
720	 0,134019901680089 
721	 0,135487482333604 
722	 0,137293822724115 
723	 0,138689055490488 
724	 0,139655134541717 
725	 0,140797376082267 
726	 0,141846909498442 
727	 0,142641853628705 
728	 0,143222975574273 
729	 0,143832499748985 
730	 0,144891055232623 
731	 0,14582941122808 
732	 0,146475865627963 
733	 0,146981432245252 
734	 0,147368079376684 
735	 0,147658561988341 
736	 0,147849316306433 
737	 0,148159351804979 
738	 0,149197473505679 
739	 0,14980761392249 
740	 0,149699175392219 
741	 0,150003609885468 
742	 0,150563614939533 
743	 0,151083978625031 
744	 0,151451165372115 
745	 0,151677188171283 
746	 0,151971263519442 
747	 0,152027964656962 
748	 0,151766900321755 
749	 0,151756629345454 
750	 0,152110768662636 
751	 0,152892411611313 
752	 0,153470371790566 
753	 0,153693772841826 
754	 0,153784552540913 
755	 0,154032214277587 
756	 0,154569904377829 
757	 0,154504231538167 
758	 0,154149967208533 
759	 0,154394825113182 
760	 0,154915417334884 
761	 0,155489653965248 
762	 0,155569178704302 
763	 0,155567144625792 
764	 0,155893044415983 
765	 0,15629264580953 
766	 0,156624229564297 
767	 0,15662133233619 
768	 0,156761774883738 
769	 0,15714112568284 
770	 0,157067395947711 
771	 0,156975282274638 
772	 0,157424296553952 
773	 0,157683728180389 
774	 0,157700943054688 
775	 0,157854993024867 
776	 0,158005247589356 
777	 0,158073874915254 
778	 0,158005755168628 
779	 0,157958330914896 
780	 0,158165113494728 
781	 0,15833903265291 
782	 0,158412681618449 
783	 0,158417922195451 
784	 0,158577919064903 
785	 0,158976944601881 
786	 0,158996253059621 
787	 0,158840055408933 
788	 0,159028611568887 
789	 0,15921705923623 
790	 0,159337000535381 
791	 0,159574672922342 
792	 0,159625553405043 
793	 0,15931548810279 
794	 0,159499488820001 
795	 0,160032331638497 
796	 0,160298565410085 
797	 0,160515861987548 
798	 0,160697053875465 
799	 0,160650875579373 
800	 0,160577640086778 
801	 0,160685647417394 
802	 0,161107768695099 
803	 0,161604044216732 
804	 0,16149640533974 
805	 0,161477640634686 
806	 0,161732891979214 
807	 0,161760983137827 
808	 0,161763064516454 
809	 0,161968279943587 
810	 0,161840241440803 
811	 0,161556492003936 
812	 0,161904690603819 
813	 0,162302806749831 
814	 0,162514659135283 
815	 0,16271504193711 
816	 0,162971991847152 
817	 0,163336152944135 
818	 0,163208682061277 
819	 0,162736544712345 
820	 0,162736474961738 
821	 0,162903585948242 
822	 0,163123838170785 
823	 0,163603942859958 
824	 0,163949885445514 
825	 0,163662255108983 
826	 0,163633240898162 
827	 0,163983002304113 
828	 0,164390731545818 
829	 0,164532253975924 
830	 0,164325500583109 
831	 0,16457364290188 
832	 0,164910111689111 
833	 0,164722990430134 
834	 0,165060718759325 
835	 0,16579322230947 
836	 0,165683552048706 
837	 0,165329743677707 
838	 0,165099374244925 
839	 0,165122377642226 
840	 0,165203627392029 
841	 0,165041264228376 
842	 0,164908002935656 
843	 0,164931677784853 
844	 0,165289225516541 
845	 0,165711387137972 
846	 0,165925263280191 
847	 0,165229485778351 
848	 0,164469143018652 
849	 0,164909271362698 
850	 0,165208952172482 
851	 0,165136739191249 
852	 0,165129750556118 
853	 0,165059384718048 
854	 0,164900907604994 
855	 0,164893847479789 
856	 0,165028908458876 
857	 0,165251657503727 
858	 0,165120700407033 
859	 0,164689050402974 
860	 0,164475080587041 
861	 0,164423588959981 
862	 0,164503749327918 
863	 0,164602114626986 
864	 0,164764031179283 
865	 0,165064876385978 
866	 0,165479369774701 
867	 0,165940699495071 
868	 0,166376873147984 
869	 0,166356069500745 
870	 0,165806315475374 
871	 0,165676684845773 
872	 0,165717918656328 
873	 0,165533135219742 
874	 0,16582517127064 
875	 0,166487260738568 
876	 0,166799673883513 
877	 0,167071979005269 
878	 0,167380448601911 
879	 0,167473447853367 
880	 0,167559282867457 
881	 0,167862914080336 
882	 0,167967049913129 
883	 0,168015942617705 
884	 0,168667959449763 
885	 0,168990055171942 
886	 0,168750638574087 
887	 0,168737252726134 
888	 0,16856661078823 
889	 0,167947493105304 
890	 0,168461079191023 
891	 0,169365122789111 
892	 0,168331368973313 
893	 0,168168632392619 
894	 0,169265901386958 
895	 0,169095430423506 
896	 0,168484272193441 
897	 0,168156372259298 
898	 0,16785228668021 
899	 0,167783333240406 
900	 0,168382301662095 
901	 0,168302703028241 
902	 0,167505240266434 
903	 0,167413325581134 
904	 0,167559903672415 
905	 0,167616490764294 
906	 0,167421178523844 
907	 0,167314791530909 
908	 0,167802174701199 
909	 0,167652175478861 
910	 0,16722704635154 
911	 0,168810123269708 
912	 0,169485450217813 
913	 0,168240174503238 
914	 0,167980128634515 
915	 0,168311398568846 
916	 0,168495289454885 
917	 0,168329532929513 
918	 0,168173617356452 
919	 0,169162583824705 
920	 0,169739385549429 
921	 0,169437889066161 
922	 0,169038357957301 
923	 0,168296697873388 
924	 0,167212517836622 
925	 0,167987792281805 
926	 0,169575805402727 
927	 0,169543445805278 
928	 0,168459054757228 
929	 0,167183069881283 
930	 0,168317639280059 
931	 0,169384240624669 
932	 0,16901136438755 
933	 0,168789706101267 
934	 0,168778675056988 
935	 0,16883652149746 
936	 0,169042680670953 
937	 0,169131576979013 
938	 0,168261802343557 
939	 0,167877628670783 
940	 0,168371429291466 
941	 0,168589634843143 
942	 0,168438152450925 
943	 0,167974473957718 
944	 0,168189178930804 
945	 0,168486324196852 
946	 0,167413086577553 
947	 0,167299270505018 
948	 0,16809827734791 
949	 0,167091939309348 
950	 0,165864208767008 
951	 0,165390964780295 
952	 0,165469295689142 
953	 0,165775964507403 
954	 0,165917770182268 
955	 0,165701424076687 
956	 0,165072358842458 
957	 0,163979626431109 
958	 0,1631325232568 
959	 0,162942876162335 
960	 0,163752857910272 
961	 0,164848242362046 
962	 0,165523716701457 
963	 0,164976857336901 
964	 0,16403965758284 
965	 0,164125501853228 
966	 0,164287139739246 
967	 0,164318902554924 
968	 0,164363819514761 
969	 0,164039091772693 
970	 0,163413432338054 
971	 0,1638680087012 
972	 0,163846857285858 
973	 0,162153273526955 
974	 0,162478096613388 
975	 0,163922227252255 
976	 0,163780396753216 
977	 0,163246123942282 
978	 0,162817480958536 
979	 0,16298746083924 
980	 0,163941541336432 
981	 0,165697110316932 
982	 0,168307831492061 
983	 0,16845469241485 
984	 0,163529927195771 
985	 0,162470357257834 
986	 0,164980548572976 
987	 0,167094202966271 
988	 0,167105926383036 
989	 0,165275925878602 
990	 0,165131533905554 
991	 0,164961247781639 
992	 0,16422350873715 
993	 0,164996806928417 
994	 0,166806295541507 
995	 0,168723367602823 
996	 0,167576632877563 
997	 0,165217887045283 
998	 0,166439865518103 
999	 0,166705453565325 
1000	 0,165697272681823 
1001	 0,166915020283848 
1002	 0,168376678293207 
1003	 0,168971439023229 
1004	 0,168595703063123 
1005	 0,167794448188732 
1006	 0,167242470923131 
1007	 0,1676521466421 
1008	 0,169361635515068 
1009	 0,172744413955312 
1010	 0,172237985953797 
1011	 0,168126476414568 
1012	 0,166231442416966 
1013	 0,166934354872031 
1014	 0,169762201566645 
1015	 0,170519073223142 
1016	 0,171181816006244 
1017	 0,173207979769436 
1018	 0,172695262280808 
1019	 0,170623266062233 
1020	 0,169282444400789 
1021	 0,168885047326258 
1022	 0,169666999133644 
1023	 0,171952159172504 
1024	 0,17359490962916 
1025	 0,17369778927812 
1026	 0,172430711819266 
1027	 0,171194730920522 
1028	 0,170988309116707 
1029	 0,171295723864043 
1030	 0,172582836805736 
1031	 0,175104607574981 
1032	 0,17417481429306 
1033	 0,171445196223028 
1034	 0,172105461627547 
1035	 0,17266177359013 
1036	 0,172738124783625 
1037	 0,174571761085503 
1038	 0,175689775209508 
1039	 0,174318449637247 
1040	 0,167658370649224 
1041	 0,162514616866045 
1042	 0,164546625620552 
1043	 0,169447584377938 
1044	 0,173421736198527 
1045	 0,172263622056657 
1046	 0,16937207401586 
1047	 0,168535730900322 
1048	 0,176605131685696 
1049	 0,182528751473043 
1050	 0,182928600917208 
1051	 0,178341054101024 
1052	 0,171683921079881 
1053	 0,16696343134942 
1054	 0,176962620736548 
1055	 0,182745350455322 
1056	 0,170347308540749 
1057	 0,16976347694354 
1058	 0,175053893878926 
1059	 0,172298560611669 
1060	 0,177719412504796 
1061	 0,183997096795844 
1062	 0,167777107869297 
1063	 0,157145181540877 
1064	 0,15960887354046 
1065	 0,168598288930668 
1066	 0,173408555270289 
1067	 0,167680855470139 
1068	 0,146835033931734 
1069	 0,139959526587364 
1070	 0,164804132075043 
1071	 0,171501613302297 
1072	 0,170106913822052 
1073	 0,177124114594237 
1074	 0,172214957925179 
1075	 0,162222697545021 
