Wavelength	SCORFF200002.asd
325	 0,779613585694297 
326	 0,724150528616448 
327	 0,574309141856599 
328	 0,417341227034511 
329	 0,514755160483589 
330	 0,592536176694593 
331	 0,462040282960785 
332	 0,427702554582811 
333	 0,483065837295588 
334	 0,518841347763026 
335	 0,501206414660049 
336	 0,44166341399948 
337	 0,40618558998184 
338	 0,359087836388924 
339	 0,299405537200585 
340	 0,384292233548002 
341	 0,50530009858826 
342	 0,45744253132744 
343	 0,416605526852186 
344	 0,42598553582221 
345	 0,387234284156977 
346	 0,357388232075596 
347	 0,397019521909401 
348	 0,409566501019355 
349	 0,398741924359122 
350	 0,419703681643897 
351	 0,428160216630938 
352	 0,405536683704245 
353	 0,35828952515874 
354	 0,326891860554997 
355	 0,360933372008247 
356	 0,399253338981833 
357	 0,412977798771195 
358	 0,38793601714978 
359	 0,369338011015845 
360	 0,37136278396569 
361	 0,344091449957292 
362	 0,318927013532726 
363	 0,347469443186962 
364	 0,38274406151124 
365	 0,410671857259426 
366	 0,416967601240138 
367	 0,401646104978678 
368	 0,369834333597897 
369	 0,349970002948863 
370	 0,343176926833175 
371	 0,345515974694451 
372	 0,345482399903649 
373	 0,344064958998603 
374	 0,364093006266061 
375	 0,376789181862874 
376	 0,364437069069658 
377	 0,3632191553632 
378	 0,370636775899887 
379	 0,369006051016196 
380	 0,365082767435315 
381	 0,363846825688196 
382	 0,382289258351 
383	 0,389820758903356 
384	 0,362052268351025 
385	 0,351647099474254 
386	 0,359989637618463 
387	 0,364147525608253 
388	 0,364449593298232 
389	 0,36094231604642 
390	 0,356248557379572 
391	 0,357140606676988 
392	 0,371009470640171 
393	 0,36901413069672 
394	 0,356277869907594 
395	 0,368759770223698 
396	 0,376099221873567 
397	 0,36590035139532 
398	 0,360795161455141 
399	 0,363664946286678 
400	 0,374955631958913 
401	 0,378626155907801 
402	 0,372318995091122 
403	 0,364901523707887 
404	 0,362317277995265 
405	 0,367243915178848 
406	 0,364786673038117 
407	 0,359933276714081 
408	 0,367571308825777 
409	 0,37258418079426 
410	 0,371108478029938 
411	 0,369009433392482 
412	 0,362700506954187 
413	 0,349617867572849 
414	 0,349650070370603 
415	 0,360084808526208 
416	 0,366461853495082 
417	 0,367272730326243 
418	 0,362381677905498 
419	 0,358062567983477 
420	 0,354836199153338 
421	 0,352455404418622 
422	 0,35560634809003 
423	 0,361910733877745 
424	 0,361254196103955 
425	 0,359175357468173 
426	 0,359020255579156 
427	 0,359419005232546 
428	 0,359895098100263 
429	 0,360019771916699 
430	 0,35848508585863 
431	 0,356002739460719 
432	 0,357355149632223 
433	 0,358576648052838 
434	 0,35625454553897 
435	 0,355142295505222 
436	 0,355966898970367 
437	 0,358578959719797 
438	 0,36041820511364 
439	 0,359953067473784 
440	 0,355663463304474 
441	 0,352051951707734 
442	 0,354733080593516 
443	 0,354785551468016 
444	 0,35228412566313 
445	 0,354979019623343 
446	 0,358278598582274 
447	 0,359210521653787 
448	 0,358184308160784 
449	 0,356969863797746 
450	 0,358668776922162 
451	 0,360874638716576 
452	 0,362253965295974 
453	 0,360596146326649 
454	 0,358655530430618 
455	 0,35894008064865 
456	 0,358202499467409 
457	 0,357052475020703 
458	 0,358815100955751 
459	 0,359855564906547 
460	 0,359470064659317 
461	 0,363739339800645 
462	 0,368310614684153 
463	 0,366864699702922 
464	 0,363261162491304 
465	 0,359929153055462 
466	 0,361180296521772 
467	 0,36369908885447 
468	 0,364924319299849 
469	 0,363862470667078 
470	 0,361737905210393 
471	 0,361072410511011 
472	 0,361817115917144 
473	 0,363771470609379 
474	 0,365961292411949 
475	 0,367263860515816 
476	 0,366666895924934 
477	 0,364017105609881 
478	 0,361141447694667 
479	 0,36277344317142 
480	 0,36487094320345 
481	 0,365492483402535 
482	 0,365590204697636 
483	 0,365644317019372 
484	 0,366216411071988 
485	 0,367084084197417 
486	 0,367978613332737 
487	 0,368281830396962 
488	 0,368186281935383 
489	 0,367884442092906 
490	 0,367716600127208 
491	 0,367553991394795 
492	 0,36702025741436 
493	 0,365976797202715 
494	 0,364595898858182 
495	 0,363644000562506 
496	 0,364112907563786 
497	 0,366937082110872 
498	 0,367471885061673 
499	 0,365849903230985 
500	 0,365843208519352 
501	 0,366835729253199 
502	 0,368275647203026 
503	 0,368272526297438 
504	 0,367979000759662 
505	 0,369910381094181 
506	 0,371300788499929 
507	 0,371328730892854 
508	 0,37019930758759 
509	 0,369571165486177 
510	 0,370822782780205 
511	 0,371856567652438 
512	 0,372361818818959 
513	 0,372800476698701 
514	 0,372564788516486 
515	 0,371690371845652 
516	 0,372051712212204 
517	 0,372740679671506 
518	 0,372206877559617 
519	 0,372549120120583 
520	 0,373929743394946 
521	 0,375099218903319 
522	 0,375366472385099 
523	 0,374485460322025 
524	 0,37534521245391 
525	 0,377107288202719 
526	 0,376984996022478 
527	 0,376010243210638 
528	 0,374782409227408 
529	 0,374559619921544 
530	 0,374930163745012 
531	 0,375287522046151 
532	 0,374537450415567 
533	 0,373141627100164 
534	 0,373334883285487 
535	 0,373919937636881 
536	 0,374071739390978 
537	 0,373131736727079 
538	 0,371981294264449 
539	 0,372354639151347 
540	 0,372991242379011 
541	 0,373387280967954 
542	 0,373135669003268 
543	 0,37306903585335 
544	 0,373958997745878 
545	 0,374254709711189 
546	 0,374077196373379 
547	 0,374717684839759 
548	 0,375273375060401 
549	 0,375363377277878 
550	 0,375590874818244 
551	 0,375849073826314 
552	 0,375874235999159 
553	 0,375876762515875 
554	 0,375790098077322 
555	 0,375136380170918 
556	 0,374333123459545 
557	 0,373768539313088 
558	 0,373617132636528 
559	 0,373740553419806 
560	 0,373730246514824 
561	 0,373702172988474 
562	 0,373574413163729 
563	 0,372610014606195 
564	 0,371880349578456 
565	 0,372844123987113 
566	 0,373455061230198 
567	 0,373501507137576 
568	 0,374261862295751 
569	 0,375180886822043 
570	 0,375839662830207 
571	 0,376176150260553 
572	 0,376434132071206 
573	 0,37714360054668 
574	 0,378019952943143 
575	 0,378917374707324 
576	 0,379677601631255 
577	 0,380187546332721 
578	 0,380364259272546 
579	 0,380976439588221 
580	 0,382139584805291 
581	 0,383709234475317 
582	 0,38468585303813 
583	 0,384687267951182 
584	 0,385678708358668 
585	 0,387373124986152 
586	 0,388868862683168 
587	 0,389613556482447 
588	 0,389835184553579 
589	 0,391627039390583 
590	 0,393123534998356 
591	 0,392641870473005 
592	 0,393336166088507 
593	 0,394938034222782 
594	 0,394962574268807 
595	 0,394864984076595 
596	 0,395250760144868 
597	 0,395477971591524 
598	 0,395667493685887 
599	 0,396102095671532 
600	 0,396199413593257 
601	 0,395840396194385 
602	 0,395250107502425 
603	 0,394672647763102 
604	 0,394328440815388 
605	 0,394530237229349 
606	 0,394719730765389 
607	 0,393293861027331 
608	 0,392554263701197 
609	 0,393078548418287 
610	 0,39259164162659 
611	 0,391849191865741 
612	 0,392003257058145 
613	 0,391523100101955 
614	 0,390497405781889 
615	 0,390380103312144 
616	 0,390786863002621 
617	 0,391344951204413 
618	 0,391050141225254 
619	 0,390430611008019 
620	 0,39089065534977 
621	 0,390938535107453 
622	 0,39033126987916 
623	 0,390343250060461 
624	 0,390600711592988 
625	 0,390641101722855 
626	 0,390445502140051 
627	 0,390213151531392 
628	 0,39059318455179 
629	 0,390789667480245 
630	 0,390495752869458 
631	 0,390656566495654 
632	 0,391188275096181 
633	 0,391772518540144 
634	 0,392305063655067 
635	 0,392850314430904 
636	 0,39392132828882 
637	 0,394907478380306 
638	 0,395299779677172 
639	 0,39555200687747 
640	 0,396006913988393 
641	 0,397376684690148 
642	 0,398351162863517 
643	 0,398508359447721 
644	 0,398990087232853 
645	 0,399495641504083 
646	 0,399508166253325 
647	 0,399209964190347 
648	 0,398696024256158 
649	 0,398119157808302 
650	 0,397495039839475 
651	 0,396841661407917 
652	 0,396134767920216 
653	 0,395508064579296 
654	 0,395288727069804 
655	 0,394710531376591 
656	 0,393670657170348 
657	 0,393138948465171 
658	 0,39247131942355 
659	 0,390984646682451 
660	 0,389813251367758 
661	 0,38903907621871 
662	 0,388218957024944 
663	 0,386972549924339 
664	 0,385274563587619 
665	 0,384507227906225 
666	 0,384193980573702 
667	 0,38332432130314 
668	 0,382687100432367 
669	 0,382370448759553 
670	 0,381879089711236 
671	 0,381354301507196 
672	 0,380944754687458 
673	 0,380960872830116 
674	 0,381141924250681 
675	 0,380750809824046 
676	 0,380302534309737 
677	 0,380043708552235 
678	 0,380140083531763 
679	 0,380554410031823 
680	 0,381212629419943 
681	 0,381565623173658 
682	 0,38175382968917 
683	 0,382649679994038 
684	 0,383818770463504 
685	 0,385004865898062 
686	 0,386307853744143 
687	 0,387819655214019 
688	 0,389666321648176 
689	 0,391894563672913 
690	 0,394494235339504 
691	 0,397215121063872 
692	 0,400657433161381 
693	 0,405294663999666 
694	 0,409863100758325 
695	 0,414369540575697 
696	 0,419443351171228 
697	 0,425245001954694 
698	 0,431731602567417 
699	 0,438098725356253 
700	 0,444436198510784 
701	 0,450983968577269 
702	 0,457444550714557 
703	 0,463867744503416 
704	 0,470782678761269 
705	 0,477375657182922 
706	 0,483182918382909 
707	 0,489115111560408 
708	 0,494951633075098 
709	 0,500007390127749 
710	 0,504919042710504 
711	 0,509788287466873 
712	 0,514054283442611 
713	 0,518127782462039 
714	 0,522382125423933 
715	 0,526271363486544 
716	 0,529765193315569 
717	 0,533123323809664 
718	 0,536039873195313 
719	 0,53844511730733 
720	 0,540695114148559 
721	 0,542850251997926 
722	 0,544940436791752 
723	 0,546875766327333 
724	 0,548558096864054 
725	 0,54970651714083 
726	 0,550897836320788 
727	 0,552438530065349 
728	 0,553660062118848 
729	 0,55454250363227 
730	 0,555207881575241 
731	 0,555938987018871 
732	 0,556770825593176 
733	 0,557367842505722 
734	 0,557921001659227 
735	 0,558580097363286 
736	 0,558847265871227 
737	 0,55906120916428 
738	 0,560401423214767 
739	 0,561126477143316 
740	 0,560739124589002 
741	 0,560560580028529 
742	 0,560656247806529 
743	 0,560962813568518 
744	 0,561226354339693 
745	 0,561382964146865 
746	 0,561476071499323 
747	 0,561556397995631 
748	 0,561641057631274 
749	 0,561583059707313 
750	 0,561577506410736 
751	 0,561942685379898 
752	 0,562317198890539 
753	 0,562547353351522 
754	 0,562506443137095 
755	 0,562400142250649 
756	 0,562413535211961 
757	 0,562699837022765 
758	 0,563228548007635 
759	 0,563940936537541 
760	 0,564237674369398 
761	 0,564062729429252 
762	 0,564210476948965 
763	 0,56461821206354 
764	 0,565156805579817 
765	 0,565370880317458 
766	 0,56537317014974 
767	 0,56572567907718 
768	 0,566039031910915 
769	 0,566134595004094 
770	 0,565975585272449 
771	 0,565623554196515 
772	 0,565167617843963 
773	 0,565006597954768 
774	 0,565144340903082 
775	 0,56531574760946 
776	 0,565274439694339 
777	 0,564925025307617 
778	 0,564651863383852 
779	 0,564563376706083 
780	 0,564748923916167 
781	 0,564566486454944 
782	 0,564038279150712 
783	 0,563951596377394 
784	 0,563753646693109 
785	 0,563168150137868 
786	 0,563094659929309 
787	 0,563311693157722 
788	 0,563197365872211 
789	 0,563148473432948 
790	 0,563250578524841 
791	 0,563402616621263 
792	 0,56349939151753 
793	 0,563465702592248 
794	 0,563418761400596 
795	 0,563418079691034 
796	 0,56355749310379 
797	 0,563570599751761 
798	 0,563428207356243 
799	 0,563429001354755 
800	 0,563633186608256 
801	 0,564044240050905 
802	 0,564120976857587 
803	 0,563932365243694 
804	 0,563905481440131 
805	 0,564061743797104 
806	 0,56432915654174 
807	 0,564187555760471 
808	 0,563953174553946 
809	 0,563989752964449 
810	 0,563821631580972 
811	 0,563564018382486 
812	 0,563848461254355 
813	 0,563894621819196 
814	 0,56344341274132 
815	 0,563124460591574 
816	 0,562888941740894 
817	 0,562627190656392 
818	 0,562952213658324 
819	 0,563628733957001 
820	 0,563599656079458 
821	 0,563316681817243 
822	 0,563092421662206 
823	 0,563504776638886 
824	 0,563958759979542 
825	 0,563636039308246 
826	 0,564134817154228 
827	 0,56519466112045 
828	 0,564679099057488 
829	 0,564554862403787 
830	 0,565621886794324 
831	 0,565911978672154 
832	 0,565694634954321 
833	 0,565631090864567 
834	 0,565950592931181 
835	 0,566564544137825 
836	 0,566970226118889 
837	 0,567100358716972 
838	 0,566951916666955 
839	 0,566888255408165 
840	 0,566857845264117 
841	 0,566721843153434 
842	 0,566585329932484 
843	 0,566430273306728 
844	 0,566041948262934 
845	 0,566020250565844 
846	 0,566500150782515 
847	 0,565976161248181 
848	 0,565031318116824 
849	 0,564719981399983 
850	 0,564580077137814 
851	 0,564455472241187 
852	 0,564200071281385 
853	 0,563828618660661 
854	 0,563392318744741 
855	 0,563140341262292 
856	 0,563094210716924 
857	 0,563233410637087 
858	 0,563065448712162 
859	 0,562615507082421 
860	 0,56235921786073 
861	 0,562331949222552 
862	 0,562521313363555 
863	 0,562661589276258 
864	 0,562657168909382 
865	 0,562441075301857 
866	 0,562512520853986 
867	 0,562943417172755 
868	 0,563570555338374 
869	 0,56411085468355 
870	 0,564370567616299 
871	 0,564181954923709 
872	 0,564070961802672 
873	 0,564666194272987 
874	 0,565711816755231 
875	 0,566827043333628 
876	 0,567153018290405 
877	 0,567396734423418 
878	 0,567852110121063 
879	 0,568333737987458 
880	 0,568812075202149 
881	 0,569237133006143 
882	 0,569078001099624 
883	 0,568559250800448 
884	 0,568469805569428 
885	 0,56872809690787 
886	 0,569264421065274 
887	 0,569855370748067 
888	 0,56990885227163 
889	 0,569012177126425 
890	 0,568921807947885 
891	 0,569270391954664 
892	 0,568471209239799 
893	 0,567981837820018 
894	 0,568168086302686 
895	 0,568498061209939 
896	 0,56842520181915 
897	 0,567604111057626 
898	 0,566894331623944 
899	 0,566521230001842 
900	 0,56661709958716 
901	 0,566382544188139 
902	 0,565761341880745 
903	 0,56558096033536 
904	 0,565184775504759 
905	 0,56433768312668 
906	 0,564497559544028 
907	 0,564959880263411 
908	 0,564494727766285 
909	 0,564039773975967 
910	 0,563885361718944 
911	 0,564208315210586 
912	 0,564514807401496 
913	 0,56452082730186 
914	 0,564121404732889 
915	 0,563958679880832 
916	 0,564668113731901 
917	 0,564443915126821 
918	 0,563858152237495 
919	 0,565454367885252 
920	 0,566104955724616 
921	 0,565082379613565 
922	 0,564451041983054 
923	 0,564587026045138 
924	 0,565627371386013 
925	 0,566458824666908 
926	 0,566724188063407 
927	 0,566175421459303 
928	 0,566046883780002 
929	 0,566404625477069 
930	 0,565813643005437 
931	 0,566028562127966 
932	 0,567746887471055 
933	 0,56824949662842 
934	 0,568056247427871 
935	 0,568225882533848 
936	 0,567967921534946 
937	 0,567331498589951 
938	 0,566739978044717 
939	 0,566823369901981 
940	 0,567495286362982 
941	 0,56683732833742 
942	 0,566171028888706 
943	 0,566701553513427 
944	 0,567326969349816 
945	 0,567708918476246 
946	 0,567649525578385 
947	 0,566346459268862 
948	 0,564262174861624 
949	 0,563741461039426 
950	 0,563683497315984 
951	 0,563408190410876 
952	 0,563038764702368 
953	 0,562151807842687 
954	 0,560369241534238 
955	 0,560463359827095 
956	 0,561888385414227 
957	 0,561887875266285 
958	 0,560339553013274 
959	 0,557874434082738 
960	 0,55773049363453 
961	 0,558342444397604 
962	 0,558362491342752 
963	 0,557986211485998 
964	 0,557241067194432 
965	 0,556185025166016 
966	 0,555647669519233 
967	 0,555742600903951 
968	 0,556178330818101 
969	 0,55575647448808 
970	 0,554534938478296 
971	 0,555929485129092 
972	 0,55741475761365 
973	 0,556702907702948 
974	 0,55711819643422 
975	 0,557467543812158 
976	 0,55464240997417 
977	 0,553810802679791 
978	 0,55562350967265 
979	 0,557094692983293 
980	 0,557658565068844 
981	 0,55718038903239 
982	 0,557109723793568 
983	 0,557524532146111 
984	 0,558325735928462 
985	 0,558916926796473 
986	 0,559545721158773 
987	 0,561081146461159 
988	 0,559829264835667 
989	 0,556616767516439 
990	 0,558128811495906 
991	 0,561151757288017 
992	 0,563542697533165 
993	 0,563568993545524 
994	 0,563060671785251 
995	 0,563914572780689 
996	 0,562812133032786 
997	 0,560840832292969 
998	 0,561202574128865 
999	 0,561266306341504 
1000	 0,561069872594114 
1001	 0,563538466886775 
1002	 0,565175434374549 
1003	 0,564497495684158 
1004	 0,564036837603256 
1005	 0,564186074943329 
1006	 0,56501539137453 
1007	 0,565103655872424 
1008	 0,564728790206566 
1009	 0,56488329506636 
1010	 0,563603274346091 
1011	 0,561856364625572 
1012	 0,564622654748206 
1013	 0,565991828005735 
1014	 0,564231253657922 
1015	 0,565475792429593 
1016	 0,565583650123092 
1017	 0,561651757185776 
1018	 0,562223192839491 
1019	 0,56503798317666 
1020	 0,564926661610249 
1021	 0,564063687270317 
1022	 0,56352017006778 
1023	 0,565245316268885 
1024	 0,564432345149313 
1025	 0,561561552695388 
1026	 0,567195513823442 
1027	 0,569720848063159 
1028	 0,563321587729819 
1029	 0,565087990577966 
1030	 0,570752256342759 
1031	 0,573021183608995 
1032	 0,570348704925076 
1033	 0,56672076358166 
1034	 0,5708852122865 
1035	 0,573965370359299 
1036	 0,573571414323033 
1037	 0,570472990943293 
1038	 0,569946861745881 
1039	 0,572827127423418 
1040	 0,569709767776263 
1041	 0,56388499724984 
1042	 0,559491382449995 
1043	 0,561906206474804 
1044	 0,565564412737006 
1045	 0,562263105402932 
1046	 0,565778912461599 
1047	 0,574258751151155 
1048	 0,575494152121762 
1049	 0,580194179761237 
1050	 0,586991120531572 
1051	 0,576348351860509 
1052	 0,570423256277263 
1053	 0,577163044478654 
1054	 0,574193871568011 
1055	 0,567952998303884 
1056	 0,566159603730426 
1057	 0,573985803986287 
1058	 0,583315910477798 
1059	 0,581417407430607 
1060	 0,583841923608406 
1061	 0,586443873861085 
1062	 0,572339931479226 
1063	 0,56494182355255 
1064	 0,571049886846979 
1065	 0,588104929576532 
1066	 0,592565753621401 
1067	 0,577435425315868 
1068	 0,567494915622435 
1069	 0,566794411501746 
1070	 0,575636283021947 
1071	 0,577963498736017 
1072	 0,576244519262289 
1073	 0,575806668312238 
1074	 0,580107434527851 
1075	 0,588442290067469 
