Wavelength	SCORFF200093.asd
325	 0,190662787493603 
326	 0,175968283013114 
327	 0,170066701508535 
328	 0,179038089656364 
329	 0,248281134593705 
330	 0,262477867870883 
331	 0,146858155226356 
332	 9,30041651313672E-02 
333	 0,129971067471331 
334	 0,248059150582022 
335	 0,341130963754238 
336	 0,32515468239512 
337	 0,254199301075868 
338	 0,165369478953291 
339	 0,141648532308279 
340	 0,144762656203352 
341	 0,159968464295846 
342	 0,182158532055114 
343	 0,217885464903408 
344	 0,249734759324877 
345	 0,245899573037791 
346	 0,235405195911509 
347	 0,244336383047804 
348	 0,226081534668412 
349	 0,199797677894011 
350	 0,224441611137996 
351	 0,259436308247772 
352	 0,270684213825266 
353	 0,212503790535582 
354	 0,157399491978262 
355	 0,193261157581982 
356	 0,239977759033501 
357	 0,258492493127073 
358	 0,220496255176892 
359	 0,200988469887215 
360	 0,222944446113263 
361	 0,19320790769094 
362	 0,164959508571373 
363	 0,228265617926664 
364	 0,252669735974443 
365	 0,230266962680169 
366	 0,229635696215196 
367	 0,236730562572325 
368	 0,240204685292329 
369	 0,218131946351037 
370	 0,196370466635835 
371	 0,231222773985977 
372	 0,248510257822169 
373	 0,237408052690149 
374	 0,244570841311998 
375	 0,25309586722134 
376	 0,250597432606605 
377	 0,244724839609527 
378	 0,239518513130044 
379	 0,240582333588647 
380	 0,235303395304217 
381	 0,22394484370259 
382	 0,231272493853125 
383	 0,238509674531541 
384	 0,229046728718004 
385	 0,226085426955929 
386	 0,233470133058153 
387	 0,252763824071546 
388	 0,256760375198433 
389	 0,239571804989553 
390	 0,233460654852705 
391	 0,237542163603288 
392	 0,247563565680791 
393	 0,240511432895808 
394	 0,222865343865045 
395	 0,229673776440103 
396	 0,242131340150662 
397	 0,249771375061411 
398	 0,245881191384583 
399	 0,240158887990391 
400	 0,248142267182855 
401	 0,245890802587768 
402	 0,233753358944565 
403	 0,234063055975446 
404	 0,24298367803989 
405	 0,254930018451017 
406	 0,248041420934625 
407	 0,234970602762357 
408	 0,247629987584318 
409	 0,25904193524422 
410	 0,260709333445071 
411	 0,254665209785126 
412	 0,245506293993155 
413	 0,237657140679965 
414	 0,235666121840452 
415	 0,239421298396678 
416	 0,247306506158667 
417	 0,251988599523785 
418	 0,250273807238553 
419	 0,24534689939479 
420	 0,241773167077604 
421	 0,244783879101692 
422	 0,246511269186595 
423	 0,246272087249291 
424	 0,248679370871377 
425	 0,250076489475627 
426	 0,248320278164332 
427	 0,244621538738493 
428	 0,241288225847177 
429	 0,241747996386224 
430	 0,242918622962983 
431	 0,244098617721338 
432	 0,247058862034997 
433	 0,248514558995303 
434	 0,245951788209695 
435	 0,246935365567422 
436	 0,250228521677463 
437	 0,249276580833297 
438	 0,247884815116368 
439	 0,247505142379636 
440	 0,24742092441782 
441	 0,247051837341754 
442	 0,245730664022783 
443	 0,246570833063724 
444	 0,248952201169569 
445	 0,248287676189078 
446	 0,24741428268836 
447	 0,248112022368233 
448	 0,249336053209237 
449	 0,251315245979881 
450	 0,254858454258445 
451	 0,257287234662595 
452	 0,258029538879824 
453	 0,259377064831713 
454	 0,258999026005215 
455	 0,254974214540788 
456	 0,252580074155813 
457	 0,25276692657998 
458	 0,255230969828566 
459	 0,25618032594491 
460	 0,254590614553095 
461	 0,255832539004515 
462	 0,25832765623685 
463	 0,259353488687323 
464	 0,258159899034634 
465	 0,256093494354854 
466	 0,258780246103523 
467	 0,260600561859906 
468	 0,258307939145669 
469	 0,258628326910419 
470	 0,261118384767109 
471	 0,263431550023701 
472	 0,262247843709987 
473	 0,258012584526108 
474	 0,258347013928667 
475	 0,260950130643934 
476	 0,262990395716146 
477	 0,261734226393874 
478	 0,258786118222121 
479	 0,260555084241831 
480	 0,260978357536921 
481	 0,258125846396722 
482	 0,259217303155244 
483	 0,262378618418459 
484	 0,263893880837901 
485	 0,263245871426909 
486	 0,261115717299669 
487	 0,26079796480778 
488	 0,261103734102186 
489	 0,261094236985475 
490	 0,26132357622129 
491	 0,261432985119229 
492	 0,260559028817668 
493	 0,259058588135722 
494	 0,257496507097351 
495	 0,257618082446924 
496	 0,259147409817626 
497	 0,261559410159748 
498	 0,262194916370379 
499	 0,261400206375708 
500	 0,26251875944121 
501	 0,26290269803563 
502	 0,261451728574305 
503	 0,26189695364934 
504	 0,263421930472799 
505	 0,263630975385688 
506	 0,265481828720666 
507	 0,268614703897257 
508	 0,267798408873564 
509	 0,266487987091858 
510	 0,267891840274894 
511	 0,269095488179559 
512	 0,269943923827104 
513	 0,271666774921703 
514	 0,272453649490506 
515	 0,271735554553815 
516	 0,271243040161702 
517	 0,271345883553032 
518	 0,272275097849133 
519	 0,272791587001787 
520	 0,273013509869696 
521	 0,274736188141592 
522	 0,276372433596082 
523	 0,276766061951476 
524	 0,276604434885801 
525	 0,276380509609136 
526	 0,277009945931229 
527	 0,277033636477692 
528	 0,276223247927502 
529	 0,276288411830573 
530	 0,276529770696105 
531	 0,276017752795216 
532	 0,275070427213807 
533	 0,274179845941939 
534	 0,274482499462537 
535	 0,275372256152013 
536	 0,276336081622399 
537	 0,276469435760312 
538	 0,275984267571646 
539	 0,275401107077346 
540	 0,275806706340896 
541	 0,27714718305557 
542	 0,277272329423244 
543	 0,277343582290127 
544	 0,278519476511158 
545	 0,278692444267812 
546	 0,278238734487528 
547	 0,279469772109655 
548	 0,280522440198773 
549	 0,280481928851921 
550	 0,279723326193799 
551	 0,279165413721094 
552	 0,280140725370819 
553	 0,280941332678418 
554	 0,281081473701149 
555	 0,280983672896683 
556	 0,280316108221613 
557	 0,278896637712638 
558	 0,277933062530258 
559	 0,277542245045822 
560	 0,277450059150179 
561	 0,277024208296198 
562	 0,276195790576619 
563	 0,27649745183845 
564	 0,276842713475644 
565	 0,275631673590503 
566	 0,275602384710002 
567	 0,276903145083319 
568	 0,277390482865235 
569	 0,278014534494459 
570	 0,279339274268114 
571	 0,279972014620711 
572	 0,280573059902733 
573	 0,283037549801938 
574	 0,28566865685812 
575	 0,287776269988844 
576	 0,2892794660917 
577	 0,290668696548727 
578	 0,292519921130731 
579	 0,295037433386079 
580	 0,297810408170167 
581	 0,299469736490779 
582	 0,301040915430796 
583	 0,303045721273837 
584	 0,304590194630198 
585	 0,306103765537412 
586	 0,308611477524655 
587	 0,310280553309129 
588	 0,310904369709374 
589	 0,312290489831442 
590	 0,313790924189131 
591	 0,314754198818219 
592	 0,315901552428287 
593	 0,317157583695826 
594	 0,317955392713851 
595	 0,318591828116453 
596	 0,319234598568461 
597	 0,320126248294577 
598	 0,320785514773627 
599	 0,320489230959633 
600	 0,319623808861304 
601	 0,31861526340569 
602	 0,318479276848259 
603	 0,318625869228784 
604	 0,318519244907934 
605	 0,317905513752536 
606	 0,316867369846075 
607	 0,315706942189779 
608	 0,314596192409143 
609	 0,3136040994053 
610	 0,312452950348624 
611	 0,311401956503806 
612	 0,310782773897131 
613	 0,309893265034768 
614	 0,308805911594515 
615	 0,308345355703823 
616	 0,308069284212758 
617	 0,307675692928057 
618	 0,307160859407968 
619	 0,306697572039909 
620	 0,30665834082752 
621	 0,306499825731664 
622	 0,306138561501105 
623	 0,306099071204489 
624	 0,306237598666851 
625	 0,306368016503236 
626	 0,306322509991751 
627	 0,306255400735762 
628	 0,306784489051877 
629	 0,307080356813889 
630	 0,306876521615863 
631	 0,307514708879378 
632	 0,308710265552059 
633	 0,309758385983853 
634	 0,310658517782469 
635	 0,311474430629753 
636	 0,312567620733746 
637	 0,313841410548233 
638	 0,315184968699478 
639	 0,316366423965851 
640	 0,317480291606458 
641	 0,318858238858946 
642	 0,320506440117721 
643	 0,322203356925331 
644	 0,322727642516075 
645	 0,322732339187254 
646	 0,323216006196701 
647	 0,323080798680989 
648	 0,322292838261694 
649	 0,321691945138183 
650	 0,320897734567081 
651	 0,319646584017671 
652	 0,317977293744254 
653	 0,316039931699327 
654	 0,314108965143496 
655	 0,312239019519858 
656	 0,310314619325988 
657	 0,307674283800814 
658	 0,304796062237819 
659	 0,302212834096126 
660	 0,299671824288294 
661	 0,297028004363025 
662	 0,293922204193628 
663	 0,291070398038397 
664	 0,288854255447168 
665	 0,28709581569277 
666	 0,285413672539052 
667	 0,283222972520674 
668	 0,281794776628939 
669	 0,281120900901089 
670	 0,279604544265391 
671	 0,278282706433805 
672	 0,277967496524794 
673	 0,27770303855802 
674	 0,277369356371227 
675	 0,27715222017257 
676	 0,276746302195433 
677	 0,276188825893274 
678	 0,276210389634826 
679	 0,276852732809165 
680	 0,278068966612967 
681	 0,2787417741256 
682	 0,279073602662566 
683	 0,280590288690177 
684	 0,28256579898784 
685	 0,284619092054288 
686	 0,287193566479113 
687	 0,290430087807043 
688	 0,294434401087073 
689	 0,299352027702426 
690	 0,305078937729896 
691	 0,310932180356127 
692	 0,317606728320434 
693	 0,32572427004265 
694	 0,334614732340999 
695	 0,344143174863783 
696	 0,354349177393924 
697	 0,365250910498928 
698	 0,376810924012919 
699	 0,388871185783102 
700	 0,401069233103499 
701	 0,413010571164462 
702	 0,424681321402976 
703	 0,436103566739683 
704	 0,447598466190899 
705	 0,458456767621464 
706	 0,468263454352883 
707	 0,477693862408777 
708	 0,486831141845458 
709	 0,495618159552479 
710	 0,50365768371577 
711	 0,510970249796529 
712	 0,518192531555679 
713	 0,525027741610228 
714	 0,531191634307012 
715	 0,537151466651113 
716	 0,542670290169929 
717	 0,546809857251439 
718	 0,551071535241776 
719	 0,555817274739995 
720	 0,558962577192211 
721	 0,561520942795475 
722	 0,565015943916268 
723	 0,568130474583804 
724	 0,570632386147616 
725	 0,572820932686024 
726	 0,574866206306756 
727	 0,576870383755278 
728	 0,578645098504421 
729	 0,580211957675402 
730	 0,581669920753417 
731	 0,582804852784527 
732	 0,583682124897007 
733	 0,58482784241525 
734	 0,586003609036059 
735	 0,586970688145085 
736	 0,587602360386018 
737	 0,588175869240615 
738	 0,589539871744506 
739	 0,590363167745198 
740	 0,590268050309853 
741	 0,590248411096306 
742	 0,590516744438739 
743	 0,591200901740652 
744	 0,591681450453305 
745	 0,591891900213755 
746	 0,592130036882306 
747	 0,592393736900333 
748	 0,592698141703329 
749	 0,593098026244065 
750	 0,593429919644264 
751	 0,59343140337269 
752	 0,593659054191281 
753	 0,59418432537385 
754	 0,594616872659354 
755	 0,595102108537072 
756	 0,595685034430376 
757	 0,595681254337715 
758	 0,595551919966823 
759	 0,596450136639337 
760	 0,597281538503637 
761	 0,597667534756984 
762	 0,597648718746356 
763	 0,597815228264017 
764	 0,598666731983972 
765	 0,599125443033066 
766	 0,599227864184799 
767	 0,599642967426716 
768	 0,60004992211226 
769	 0,600296151439181 
770	 0,600267254174926 
771	 0,600057778342052 
772	 0,599799465556943 
773	 0,599730599191045 
774	 0,599905444001914 
775	 0,600346103081255 
776	 0,600497287581093 
777	 0,600096079311814 
778	 0,599591886742645 
779	 0,599259225908433 
780	 0,599405213979939 
781	 0,599388077066994 
782	 0,599123355746645 
783	 0,598991275905635 
784	 0,59891424811021 
785	 0,598851813956311 
786	 0,598855547969501 
787	 0,599000237817492 
788	 0,599451349116236 
789	 0,599322433698987 
790	 0,598672595878408 
791	 0,598927286180338 
792	 0,59942388589409 
793	 0,599606063064714 
794	 0,59979693455342 
795	 0,59999246300983 
796	 0,600097230496861 
797	 0,600160879934807 
798	 0,600241228427135 
799	 0,600503158136259 
800	 0,60078877405702 
801	 0,600955214350086 
802	 0,601293388343093 
803	 0,60164284019274 
804	 0,601424837211473 
805	 0,601410908971565 
806	 0,601810432444324 
807	 0,602060898529251 
808	 0,602138563793501 
809	 0,602067772379285 
810	 0,601967584487267 
811	 0,601870478999632 
812	 0,601772701863664 
813	 0,601625688814243 
814	 0,601453643698007 
815	 0,601542181905617 
816	 0,601577632349519 
817	 0,601181854855036 
818	 0,601053848799622 
819	 0,601289399179502 
820	 0,601676441679614 
821	 0,602009286765208 
822	 0,602173345135577 
823	 0,602330599177834 
824	 0,602243993180735 
825	 0,601616576365528 
826	 0,601911680941591 
827	 0,602961476768829 
828	 0,603017115386332 
829	 0,603171701697783 
830	 0,603888786775448 
831	 0,60440138040654 
832	 0,604502647008923 
833	 0,604044294247871 
834	 0,60386091485059 
835	 0,604153425436542 
836	 0,604764624249854 
837	 0,605361140734885 
838	 0,605700908335723 
839	 0,605736385515213 
840	 0,605518219718308 
841	 0,605132609978746 
842	 0,604963521972188 
843	 0,604943480233016 
844	 0,604395262132875 
845	 0,60416161518956 
846	 0,604604746948345 
847	 0,604845539589518 
848	 0,604573925560749 
849	 0,603528510831715 
850	 0,603345408796718 
851	 0,603877019906113 
852	 0,603139166663253 
853	 0,602345951009388 
854	 0,602144139600665 
855	 0,602118355692039 
856	 0,602195183131545 
857	 0,602327426121567 
858	 0,602210402822285 
859	 0,601840029577982 
860	 0,601445453232621 
861	 0,601180950504771 
862	 0,601189205340523 
863	 0,601757830692528 
864	 0,602224252028726 
865	 0,601735896038392 
866	 0,601884232083833 
867	 0,60276170574736 
868	 0,603508936986097 
869	 0,603793364862045 
870	 0,603626687295007 
871	 0,604401940738785 
872	 0,605143004421791 
873	 0,604584282698752 
874	 0,604513111683534 
875	 0,605189920433223 
876	 0,606200638244319 
877	 0,606979504107488 
878	 0,607292116157589 
879	 0,607616403829395 
880	 0,607901627971388 
881	 0,608052132824283 
882	 0,608058145214487 
883	 0,607962742179884 
884	 0,607819733220214 
885	 0,607941191381908 
886	 0,608349305584947 
887	 0,60858641902601 
888	 0,60831162144736 
889	 0,607346372296775 
890	 0,607123474755975 
891	 0,607538159395387 
892	 0,607781060857714 
893	 0,607655866379797 
894	 0,607228446281663 
895	 0,607369274127792 
896	 0,60711040882876 
897	 0,60584474219214 
898	 0,60547836648039 
899	 0,60576625804896 
900	 0,605726305299564 
901	 0,605696775526982 
902	 0,605532592099756 
903	 0,604363635341031 
904	 0,603805274568647 
905	 0,604602857973924 
906	 0,604236239229815 
907	 0,603361546710448 
908	 0,603346261299276 
909	 0,603148662474809 
910	 0,602781263601587 
911	 0,603132286235706 
912	 0,603036526746706 
913	 0,602112798187608 
914	 0,601527393545201 
915	 0,601653756371229 
916	 0,602684431523534 
917	 0,602804583275137 
918	 0,602423822889808 
919	 0,603791639312264 
920	 0,603869108895219 
921	 0,60229059085802 
922	 0,602510017240862 
923	 0,603648468871518 
924	 0,604713722657255 
925	 0,6049241473956 
926	 0,604308229285874 
927	 0,603178317836694 
928	 0,602952240289951 
929	 0,60372322504838 
930	 0,604021908987924 
931	 0,604327206518873 
932	 0,604797515878204 
933	 0,604561364794224 
934	 0,604350571001053 
935	 0,605158842070469 
936	 0,605157339508883 
937	 0,604361231357645 
938	 0,603982585376899 
939	 0,603679462000149 
940	 0,603402821483972 
941	 0,603398526404476 
942	 0,603208398625212 
943	 0,602511382101293 
944	 0,602490318789064 
945	 0,602714347434018 
946	 0,602047177440675 
947	 0,601118670770573 
948	 0,600126559828142 
949	 0,599111659842108 
950	 0,597978521359259 
951	 0,596729021917435 
952	 0,595627282838902 
953	 0,594674842647207 
954	 0,593839231065628 
955	 0,593480976650585 
956	 0,593297962771221 
957	 0,592388513421844 
958	 0,591101654466922 
959	 0,589987481795506 
960	 0,590902390889419 
961	 0,591752894584324 
962	 0,590914388950405 
963	 0,589356840078996 
964	 0,587998272832263 
965	 0,587964804840372 
966	 0,587418087330976 
967	 0,586738254381496 
968	 0,588870859283216 
969	 0,589276129442464 
970	 0,586720339019441 
971	 0,586015603933645 
972	 0,58601729906561 
973	 0,585496227280499 
974	 0,585939276334338 
975	 0,586714174234434 
976	 0,586320352342508 
977	 0,586281738793159 
978	 0,586728136055554 
979	 0,586586253999343 
980	 0,586572057661448 
981	 0,586981708215789 
982	 0,587364560869938 
983	 0,587510676299205 
984	 0,587395230927845 
985	 0,589013547289448 
986	 0,591181717209115 
987	 0,59094822362804 
988	 0,590403933635681 
989	 0,590066938952217 
990	 0,589331338981055 
991	 0,589723894113583 
992	 0,591568446405965 
993	 0,591536335636113 
994	 0,591609169276682 
995	 0,593816138508376 
996	 0,593616422158018 
997	 0,591639184069549 
998	 0,590652987458832 
999	 0,591664268309777 
1000	 0,59409298084302 
1001	 0,5945370734284 
1002	 0,594885877535304 
1003	 0,59549829496055 
1004	 0,592412502261089 
1005	 0,590829516381513 
1006	 0,595400587822056 
1007	 0,597241499005929 
1008	 0,5964006462377 
1009	 0,59584683877471 
1010	 0,59495296952825 
1011	 0,594020695379636 
1012	 0,593781886647769 
1013	 0,595481250880394 
1014	 0,598711980313335 
1015	 0,599218071422761 
1016	 0,596567759984828 
1017	 0,591779324344317 
1018	 0,59446269752802 
1019	 0,599935348946686 
1020	 0,599210183619759 
1021	 0,597126639755833 
1022	 0,595404238589952 
1023	 0,595550664862013 
1024	 0,596126629558155 
1025	 0,59676655430835 
1026	 0,598261550124168 
1027	 0,599500943776165 
1028	 0,599709363667413 
1029	 0,599301048572606 
1030	 0,598032070098178 
1031	 0,595900006583615 
1032	 0,597520100061449 
1033	 0,601147863931672 
1034	 0,601388186753304 
1035	 0,602512916400525 
1036	 0,604965431151444 
1037	 0,606318611395788 
1038	 0,606999844505569 
1039	 0,605512033239468 
1040	 0,592569979156689 
1041	 0,585024630790919 
1042	 0,595293032815238 
1043	 0,601523901013245 
1044	 0,600883995632523 
1045	 0,594484822790305 
1046	 0,597667802252509 
1047	 0,608278821597091 
1048	 0,611923566482822 
1049	 0,61342773693267 
1050	 0,612781743296639 
1051	 0,604836573268246 
1052	 0,599143340970216 
1053	 0,599212955497101 
1054	 0,594331274317708 
1055	 0,595931941151851 
1056	 0,61065539473821 
1057	 0,607468715697812 
1058	 0,597972718393955 
1059	 0,604283618154933 
1060	 0,600898448625968 
1061	 0,589964385065763 
1062	 0,587482737409002 
1063	 0,592175051852647 
1064	 0,601188914493539 
1065	 0,604910815775104 
1066	 0,607819299603561 
1067	 0,608142445519542 
1068	 0,584558635870027 
1069	 0,574283446193815 
1070	 0,601146087977548 
1071	 0,605519907567728 
1072	 0,596193455484893 
1073	 0,591172188182508 
1074	 0,593406968559171 
1075	 0,595609339431945 
