Wavelength	SCORFF200569.asd
325	 0,122057965724428 
326	 0,331157237979059 
327	 0,312980367493128 
328	 0,065267431687491 
329	 0,155235639407565 
330	 0,317578604261613 
331	 0,361375601542966 
332	 0,326274842699826 
333	 0,266971012722732 
334	 0,242778180668675 
335	 0,282816478335637 
336	 0,34171798652673 
337	 0,278962457895577 
338	 0,187930537997627 
339	 0,204472171040091 
340	 0,236945735772878 
341	 0,256237000534477 
342	 0,248500700921364 
343	 0,271491638458182 
344	 0,31277252503115 
345	 0,26570562318314 
346	 0,230007106261406 
347	 0,302733955685192 
348	 0,288183049293925 
349	 0,220038165306357 
350	 0,252637456724863 
351	 0,278804016698635 
352	 0,260753902647296 
353	 0,27258136823481 
354	 0,279102765343397 
355	 0,233522526830721 
356	 0,242706438154605 
357	 0,292293275269962 
358	 0,279848817861975 
359	 0,27156048026053 
360	 0,286736303408416 
361	 0,245039795197914 
362	 0,207269291048216 
363	 0,271768334087823 
364	 0,295052800202463 
365	 0,273785417101593 
366	 0,310060527494937 
367	 0,322536855677287 
368	 0,271346681175629 
369	 0,246806585115362 
370	 0,253599692027067 
371	 0,279958378368845 
372	 0,28326834787927 
373	 0,265380456658485 
374	 0,292549287917522 
375	 0,31547199376859 
376	 0,301291326395758 
377	 0,294661002274939 
378	 0,29721356945469 
379	 0,296701157823316 
380	 0,290260905238281 
381	 0,28242037607938 
382	 0,303821747478551 
383	 0,321255670801833 
384	 0,306317778228993 
385	 0,286752881055046 
386	 0,27513272759153 
387	 0,286683000872824 
388	 0,304564568174801 
389	 0,316128196044765 
390	 0,302140514885935 
391	 0,286433984699173 
392	 0,299717090377544 
393	 0,298871599785546 
394	 0,28591229484043 
395	 0,296780846775898 
396	 0,302035787715827 
397	 0,290701549040719 
398	 0,293224669795681 
399	 0,304096720789901 
400	 0,311881566756326 
401	 0,299007548581713 
402	 0,274510789627558 
403	 0,28612418838757 
404	 0,301270817363442 
405	 0,297647144471704 
406	 0,292473607027254 
407	 0,29135364786985 
408	 0,301647696285904 
409	 0,30752863881019 
410	 0,305151967322894 
411	 0,301699746497243 
412	 0,298058742018341 
413	 0,294790117091238 
414	 0,293859411862839 
415	 0,295056833153801 
416	 0,297845924730849 
417	 0,296726195795825 
418	 0,290795666389414 
419	 0,288642464595518 
420	 0,291142110508481 
421	 0,298352737376835 
422	 0,30095909573009 
423	 0,298634207067665 
424	 0,298462940744818 
425	 0,297664484559334 
426	 0,294986910597385 
427	 0,294144115477465 
428	 0,295050492229096 
429	 0,296673920153981 
430	 0,297979338642268 
431	 0,298550133969241 
432	 0,298806774714836 
433	 0,298218127950804 
434	 0,296495148391931 
435	 0,296430509916676 
436	 0,297950191660442 
437	 0,299631039725979 
438	 0,301219747382624 
439	 0,302088759245755 
440	 0,299993859588062 
441	 0,297592626491304 
442	 0,298354462102506 
443	 0,299832737036529 
444	 0,301185851900603 
445	 0,301929865331562 
446	 0,301770612527014 
447	 0,300854550304481 
448	 0,302227674372898 
449	 0,303958067250389 
450	 0,301571706199151 
451	 0,300468111657207 
452	 0,301815128176728 
453	 0,302796564411106 
454	 0,303033027716003 
455	 0,302353493893676 
456	 0,301685321313932 
457	 0,30173309375982 
458	 0,303856884886161 
459	 0,305451150844657 
460	 0,30538536118634 
461	 0,304471160977203 
462	 0,303739733616264 
463	 0,30439212009624 
464	 0,305565859236601 
465	 0,306715312451621 
466	 0,307056383928319 
467	 0,306409617296048 
468	 0,304952629123144 
469	 0,305099117157627 
470	 0,30620213710861 
471	 0,306318591191138 
472	 0,306068582518716 
473	 0,305718057953211 
474	 0,305755854322304 
475	 0,305902837320568 
476	 0,305809437252831 
477	 0,304261470910916 
478	 0,302282023382247 
479	 0,303413796520373 
480	 0,303953040255205 
481	 0,30269935278622 
482	 0,304428205815904 
483	 0,306513583339128 
484	 0,304407717280572 
485	 0,303856174103322 
486	 0,305474431209775 
487	 0,305336935157384 
488	 0,305195321582761 
489	 0,306298807053513 
490	 0,306946608751321 
491	 0,306843114068771 
492	 0,30610044832976 
493	 0,304347297004776 
494	 0,301903397958298 
495	 0,300401411515193 
496	 0,300740200495544 
497	 0,303658073148037 
498	 0,304423994187776 
499	 0,303351141351286 
500	 0,305217779956059 
501	 0,306730894193095 
502	 0,306160595228637 
503	 0,305368289835145 
504	 0,305185535923765 
505	 0,306646276174486 
506	 0,307569620470492 
507	 0,307401140818561 
508	 0,307063398110471 
509	 0,306509435473781 
510	 0,305748424743003 
511	 0,306235940831105 
512	 0,307370743529336 
513	 0,306830744372494 
514	 0,306714223666225 
515	 0,307598559413696 
516	 0,307041772404486 
517	 0,306042586800632 
518	 0,306250754278385 
519	 0,307603414750776 
520	 0,309622946065984 
521	 0,310888164570963 
522	 0,311094366273422 
523	 0,310194244345681 
524	 0,30971972490309 
525	 0,310078158700571 
526	 0,311851164116373 
527	 0,311887701151145 
528	 0,309772975164491 
529	 0,309936421102572 
530	 0,310911007208433 
531	 0,31065537715547 
532	 0,310319131691391 
533	 0,310040922615679 
534	 0,309380347279292 
535	 0,309269131818757 
536	 0,310064504316902 
537	 0,309797108845577 
538	 0,309115327525116 
539	 0,309702098838737 
540	 0,310270672931459 
541	 0,310538580751347 
542	 0,311195354352433 
543	 0,311649902319185 
544	 0,311345618718905 
545	 0,311322984166065 
546	 0,311664775163106 
547	 0,311912534840663 
548	 0,312372567436496 
549	 0,313056546317795 
550	 0,313058365154721 
551	 0,312820727995423 
552	 0,313179868593471 
553	 0,313519059467181 
554	 0,313723405209203 
555	 0,314076520983557 
556	 0,314335374825706 
557	 0,314282981009916 
558	 0,313854284793261 
559	 0,313286240559267 
560	 0,313186649901914 
561	 0,312932952582437 
562	 0,312409460620647 
563	 0,312515405646 
564	 0,312665079066202 
565	 0,311985222708656 
566	 0,312226547450193 
567	 0,313283341864301 
568	 0,313082747389897 
569	 0,313069243112343 
570	 0,314165499089573 
571	 0,314864491250798 
572	 0,315318763911931 
573	 0,316356789201453 
574	 0,317610843564229 
575	 0,318922594501347 
576	 0,320244970118582 
577	 0,321160299142507 
578	 0,321257618274057 
579	 0,321927290791364 
580	 0,323283339170096 
581	 0,324675150852631 
582	 0,325536045448506 
583	 0,325598915438982 
584	 0,32569701320942 
585	 0,326107310615293 
586	 0,327139238907353 
587	 0,32750022707154 
588	 0,32719236066116 
589	 0,32816391852204 
590	 0,32936650258827 
591	 0,329770405811605 
592	 0,330260080214043 
593	 0,330859916921382 
594	 0,331163192525507 
595	 0,331501600318185 
596	 0,331991707776961 
597	 0,332272598762114 
598	 0,33259731192362 
599	 0,333432671592499 
600	 0,333360501020605 
601	 0,332372611544162 
602	 0,332069514894728 
603	 0,331903876544931 
604	 0,3314834248584 
605	 0,331829206255066 
606	 0,33233943422251 
607	 0,331131453341732 
608	 0,330046827755666 
609	 0,329689981459083 
610	 0,329122337938686 
611	 0,328485651165271 
612	 0,328038059253373 
613	 0,327738679569724 
614	 0,327580488515322 
615	 0,327551358251877 
616	 0,327618068987195 
617	 0,327721750334066 
618	 0,327554411597492 
619	 0,327388772138634 
620	 0,327938715412224 
621	 0,327767508602763 
622	 0,326781832940354 
623	 0,326998110074303 
624	 0,327435531982908 
625	 0,327009871798495 
626	 0,327135100489945 
627	 0,327720105519227 
628	 0,32757136579624 
629	 0,327746287272173 
630	 0,328582047174383 
631	 0,328339596790629 
632	 0,327801455309591 
633	 0,328543926232353 
634	 0,329298778977117 
635	 0,329854065656739 
636	 0,331040022167831 
637	 0,3317570168191 
638	 0,331194758039167 
639	 0,331536161648098 
640	 0,33280088870884 
641	 0,334050878402334 
642	 0,334910055739851 
643	 0,335241663674939 
644	 0,335696498267833 
645	 0,336108642415688 
646	 0,336186074147217 
647	 0,335965276500102 
648	 0,335531972786223 
649	 0,335173522040343 
650	 0,334590027440831 
651	 0,333634552068272 
652	 0,332862547529728 
653	 0,332261384968456 
654	 0,331674994659064 
655	 0,33073244615479 
656	 0,329406825490726 
657	 0,328314335997241 
658	 0,327229833161756 
659	 0,325899412216142 
660	 0,324877707430631 
661	 0,324045932712455 
662	 0,322689674928909 
663	 0,321407088139163 
664	 0,320526217411999 
665	 0,320071660287462 
666	 0,319643108704442 
667	 0,318633386549805 
668	 0,317492089502665 
669	 0,316536333800877 
670	 0,316413540593225 
671	 0,316367347285036 
672	 0,315824637861564 
673	 0,315689989168602 
674	 0,315903999105804 
675	 0,316027987574684 
676	 0,315810452366692 
677	 0,315323693416185 
678	 0,315624512523998 
679	 0,316218178418735 
680	 0,31641992016418 
681	 0,316734353471508 
682	 0,317271782634556 
683	 0,31797855021939 
684	 0,31890083682759 
685	 0,320053353072592 
686	 0,321222151864382 
687	 0,322783029195124 
688	 0,325453446909355 
689	 0,328214391326302 
690	 0,330926080468003 
691	 0,334425000214429 
692	 0,338552185010781 
693	 0,343132015633737 
694	 0,348122423532785 
695	 0,353561070217816 
696	 0,359679928288863 
697	 0,365867322906083 
698	 0,371918065582584 
699	 0,378442032304019 
700	 0,385007665717762 
701	 0,391015110024032 
702	 0,397308061685848 
703	 0,403834966142292 
704	 0,409858107565701 
705	 0,415306696570642 
706	 0,420150783806671 
707	 0,424612878524333 
708	 0,428908700833296 
709	 0,433316256032429 
710	 0,437575566822178 
711	 0,441508971283241 
712	 0,444728785222178 
713	 0,447658996043743 
714	 0,450691199771854 
715	 0,453406373182984 
716	 0,455765503578391 
717	 0,457853257982858 
718	 0,459830445139445 
719	 0,461747124002323 
720	 0,463321680779601 
721	 0,464876100624758 
722	 0,466847428432734 
723	 0,468302853500859 
724	 0,469160946015765 
725	 0,469915286537845 
726	 0,4708592478057 
727	 0,472112767395501 
728	 0,472932944367571 
729	 0,473519990436207 
730	 0,474426906469147 
731	 0,47525597182166 
732	 0,475890301928801 
733	 0,476361608960382 
734	 0,476837149269862 
735	 0,477424554933364 
736	 0,477486580678984 
737	 0,477387642367656 
738	 0,478383546597419 
739	 0,479012341828238 
740	 0,47883599294622 
741	 0,478800358871929 
742	 0,478922727370703 
743	 0,479130367916938 
744	 0,479390426670711 
745	 0,479659096432457 
746	 0,479851976888332 
747	 0,480048841509761 
748	 0,480298881519907 
749	 0,480663130083583 
750	 0,480904149718337 
751	 0,480632382042347 
752	 0,480885789846855 
753	 0,481749687635934 
754	 0,482400598096383 
755	 0,48279504787764 
756	 0,482914266247171 
757	 0,482828259285732 
758	 0,482864436559348 
759	 0,483632975518961 
760	 0,484418662376287 
761	 0,484919783459693 
762	 0,484990495527649 
763	 0,485140443622944 
764	 0,485825661235662 
765	 0,486380408703744 
766	 0,486711833976189 
767	 0,486949577022055 
768	 0,487052123995605 
769	 0,487114790064676 
770	 0,487706232679638 
771	 0,488324578713039 
772	 0,488335137179023 
773	 0,488231721246489 
774	 0,488165715784282 
775	 0,488223764883719 
776	 0,488253947443892 
777	 0,488232039151375 
778	 0,488629283000195 
779	 0,488957008956445 
780	 0,488440168608566 
781	 0,488076609742059 
782	 0,488068661195048 
783	 0,488087010873024 
784	 0,488071881737501 
785	 0,487998470287119 
786	 0,488025784699238 
787	 0,488213163634908 
788	 0,488647102719046 
789	 0,488768087787263 
790	 0,488583035530479 
791	 0,488934573257548 
792	 0,489240557829807 
793	 0,489088734517852 
794	 0,4894651433998 
795	 0,490127567543443 
796	 0,490215223922772 
797	 0,490273820887542 
798	 0,490514444787308 
799	 0,491080531401622 
800	 0,491510123587347 
801	 0,491406932822873 
802	 0,491583120338994 
803	 0,49193633282289 
804	 0,491738729356424 
805	 0,49182752131315 
806	 0,49243061094593 
807	 0,493010303279968 
808	 0,493317834390515 
809	 0,493162002209104 
810	 0,493177313530292 
811	 0,493477967714034 
812	 0,494019517563561 
813	 0,494237636537948 
814	 0,493959521546011 
815	 0,493817862762623 
816	 0,493882199274223 
817	 0,494156833485879 
818	 0,49452736199037 
819	 0,494897271749267 
820	 0,495097928980776 
821	 0,495339741753701 
822	 0,495666481598345 
823	 0,495716456900703 
824	 0,495514135956645 
825	 0,495151217273057 
826	 0,495572018361875 
827	 0,496577382331866 
828	 0,496752583875546 
829	 0,496979065664025 
830	 0,497604347836865 
831	 0,49778220315807 
832	 0,497787641157035 
833	 0,498108958294625 
834	 0,498444950496868 
835	 0,498787051969591 
836	 0,499340850856032 
837	 0,499910619066441 
838	 0,500322951459321 
839	 0,500315394785034 
840	 0,500012617665448 
841	 0,499635617324854 
842	 0,499453964262679 
843	 0,499479248922123 
844	 0,499368992493563 
845	 0,499639910270042 
846	 0,500425220137331 
847	 0,500666406573205 
848	 0,50037669544998 
849	 0,499767701122146 
850	 0,499895267144112 
851	 0,500534299849565 
852	 0,499993281524602 
853	 0,49923593696657 
854	 0,498788772765459 
855	 0,498342242187882 
856	 0,498147496707995 
857	 0,498557591212666 
858	 0,498838486904361 
859	 0,4988287510578 
860	 0,498685647926322 
861	 0,498579131593106 
862	 0,498615793126391 
863	 0,49871677528568 
864	 0,498994594349059 
865	 0,499589126553006 
866	 0,499937735335268 
867	 0,500081236391896 
868	 0,500628926056716 
869	 0,501016240167074 
870	 0,501058444256776 
871	 0,50134932342178 
872	 0,501829468941953 
873	 0,502356412651088 
874	 0,502977967540904 
875	 0,503611450542624 
876	 0,504044053798277 
877	 0,50436289687497 
878	 0,50465090428246 
879	 0,505128675152027 
880	 0,505707048955647 
881	 0,506226464769467 
882	 0,505763740555911 
883	 0,505123941037674 
884	 0,507019446283053 
885	 0,508215135926298 
886	 0,507818350126444 
887	 0,507914158540441 
888	 0,508129546851262 
889	 0,508063588857498 
890	 0,50859808432857 
891	 0,509248762365539 
892	 0,508639095036394 
893	 0,507974366037114 
894	 0,507789703827098 
895	 0,508588925305243 
896	 0,508911160912277 
897	 0,507757037252325 
898	 0,507179457857424 
899	 0,507272098747338 
900	 0,507610213724193 
901	 0,507574762766323 
902	 0,507115702638091 
903	 0,50684445638052 
904	 0,506896667234007 
905	 0,50729405496557 
906	 0,50759716661327 
907	 0,507537215181303 
908	 0,506850339244856 
909	 0,506445731271722 
910	 0,506503271699062 
911	 0,506855120722203 
912	 0,506674983152871 
913	 0,505840142096367 
914	 0,506142475366506 
915	 0,50710355252497 
916	 0,507962519598399 
917	 0,508086129033832 
918	 0,507770671491482 
919	 0,508187748800806 
920	 0,508398108593326 
921	 0,508231280426778 
922	 0,508373631312115 
923	 0,508829514073931 
924	 0,509530289507317 
925	 0,510171607723675 
926	 0,510288763232241 
927	 0,509143604632355 
928	 0,509014688863898 
929	 0,510174025884504 
930	 0,510922441675286 
931	 0,51153073044619 
932	 0,512077621029153 
933	 0,51213400578989 
934	 0,512080947347401 
935	 0,512464704475509 
936	 0,513866878759021 
937	 0,515343789109853 
938	 0,51382752000797 
939	 0,513112679420143 
940	 0,514115875556004 
941	 0,513304284752311 
942	 0,512231766585309 
943	 0,512410942227382 
944	 0,512873664266479 
945	 0,51354167853384 
946	 0,514643258507705 
947	 0,514065372779953 
948	 0,511924450340666 
949	 0,510930080679247 
950	 0,510457073831211 
951	 0,510273859582829 
952	 0,511236242655999 
953	 0,511846169036259 
954	 0,510376906956385 
955	 0,510209909081139 
956	 0,510959659023529 
957	 0,509766004248453 
958	 0,508113578149067 
959	 0,506989864572407 
960	 0,508379489684847 
961	 0,509776100430581 
962	 0,509269708716128 
963	 0,508517370951772 
964	 0,507492656349243 
965	 0,505822311881881 
966	 0,505505983963422 
967	 0,506643636143241 
968	 0,508025508996508 
969	 0,508308937154927 
970	 0,507228603381702 
971	 0,507213964697422 
972	 0,507277519599249 
973	 0,506472567616904 
974	 0,50594195678338 
975	 0,506373870146579 
976	 0,508605182866989 
977	 0,51039189451529 
978	 0,510668967375021 
979	 0,508025324195382 
980	 0,507539854280225 
981	 0,510897275504746 
982	 0,511566532166094 
983	 0,511203327012064 
984	 0,511909887065682 
985	 0,511200911894321 
986	 0,510533495141776 
987	 0,513550160931261 
988	 0,514545291553875 
989	 0,513069144669296 
990	 0,513886905746548 
991	 0,514723706566024 
992	 0,514562443725127 
993	 0,514545347943569 
994	 0,515568448325973 
995	 0,518073411418871 
996	 0,516869791418766 
997	 0,514119588336571 
998	 0,515941627214818 
999	 0,516258156898768 
1000	 0,514938536350207 
1001	 0,517755875363212 
1002	 0,52047922889616 
1003	 0,521154566022986 
1004	 0,521810945405826 
1005	 0,52262882108257 
1006	 0,523621975834359 
1007	 0,524480353566743 
1008	 0,524871851099366 
1009	 0,524395083160665 
1010	 0,522359712417239 
1011	 0,519950255291842 
1012	 0,521260857217746 
1013	 0,523366066546639 
1014	 0,52482762930919 
1015	 0,526128987390037 
1016	 0,525505253181772 
1017	 0,522484307370693 
1018	 0,526513787097129 
1019	 0,531946039723525 
1020	 0,528620712719331 
1021	 0,524876071764102 
1022	 0,523576228368412 
1023	 0,526913319524142 
1024	 0,528070064191771 
1025	 0,526138381605143 
1026	 0,529034162970213 
1027	 0,532512268030964 
1028	 0,533107491097924 
1029	 0,528239018729834 
1030	 0,524503737365232 
1031	 0,529125351948737 
1032	 0,531041948598977 
1033	 0,531099441236182 
1034	 0,535293216612998 
1035	 0,541553326956418 
1036	 0,546431838072039 
1037	 0,539733046979151 
1038	 0,536175109276849 
1039	 0,54043094085939 
1040	 0,538318647004514 
1041	 0,533229477989013 
1042	 0,529440471916189 
1043	 0,532153360370869 
1044	 0,534867382081704 
1045	 0,528275901193521 
1046	 0,52684422274522 
1047	 0,531625396885677 
1048	 0,537007464180825 
1049	 0,542044503753651 
1050	 0,544784840929537 
1051	 0,539030997741357 
1052	 0,533699502174079 
1053	 0,53375325416312 
1054	 0,538832125899416 
1055	 0,543708934918882 
1056	 0,54389134117303 
1057	 0,542715905293222 
1058	 0,539041479447926 
1059	 0,531442937923887 
1060	 0,531672650442836 
1061	 0,537830646820186 
1062	 0,539859984601158 
1063	 0,540155503425671 
1064	 0,539761019441296 
1065	 0,540811047393204 
1066	 0,543067091657684 
1067	 0,54406174890029 
1068	 0,530657823022778 
1069	 0,525560744197608 
1070	 0,543050904391279 
1071	 0,545826587595139 
1072	 0,539990468505284 
1073	 0,537889013521803 
1074	 0,549763655960243 
1075	 0,558723314441613 
