Wavelength	SCORFF200190.asd
325	-0,197029068747965 
326	 0,170720239910542 
327	 0,239531937886988 
328	-1,42075295943011E-02 
329	-9,22809790989076E-02 
330	-3,26784100621291E-02 
331	 0,111651400354329 
332	 0,119657740940956 
333	 0,025119078202056 
334	-6,85410390866153E-02 
335	-1,59944367176634E-02 
336	 0,134172521467603 
337	 0,103956608769604 
338	-2,54243345743584E-02 
339	-0,134476856852405 
340	-0,135614364310999 
341	-0,071474137431094 
342	-3,44682093561154E-02 
343	 4,72513737169407E-02 
344	 0,1320856508099 
345	 6,29349109738372E-02 
346	-1,26300173374985E-02 
347	 5,17274018484421E-02 
348	 7,43849200300152E-02 
349	 5,68350385101736E-02 
350	 8,93254662546998E-02 
351	 8,64691413742525E-02 
352	 0,029167389115324 
353	-1,12423620225758E-03 
354	-4,83225256899965E-03 
355	 1,68604332112983E-02 
356	 5,14341262666571E-02 
357	 0,079989061324947 
358	 8,84973741949092E-02 
359	 7,50220793292282E-02 
360	 3,83625332341851E-02 
361	-2,08208870477987E-02 
362	-4,55777246194679E-02 
363	 3,88773200543232E-02 
364	 6,39323974144509E-02 
365	 2,41681978806291E-02 
366	 3,25834182123156E-02 
367	 4,25968116393847E-02 
368	 2,70459704852199E-02 
369	 6,67917391171715E-03 
370	-5,57606698928037E-03 
371	 1,23116381840674E-02 
372	 1,22009425905926E-02 
373	-6,56061813848133E-03 
374	 1,53337033446277E-02 
375	 3,43712632743544E-02 
376	 2,16333730259292E-02 
377	 2,09057860140659E-02 
378	 2,78451060510969E-02 
379	 1,77923585847163E-02 
380	 1,14514911896925E-02 
381	 1,66276069824634E-02 
382	 3,63994190608365E-02 
383	 4,78018667043981E-02 
384	 3,32117567935798E-02 
385	 2,35001753469232E-02 
386	 1,93105351358033E-02 
387	 3,3607959247476E-03 
388	-1,97134917880943E-03 
389	 8,20408659316109E-03 
390	 6,31955179094769E-03 
391	 9,11735738415209E-03 
392	 3,77938780638111E-02 
393	 2,56340132273792E-02 
394	-1,40527807152733E-02 
395	 3,51284959097648E-03 
396	 2,07695028869849E-02 
397	 1,27277867958677E-02 
398	 1,57430127102228E-02 
399	 2,16961072583029E-02 
400	 1,31439319862547E-02 
401	 7,60831309904863E-03 
402	 8,43317417731819E-03 
403	 7,81486124229481E-03 
404	 0,013278802621306 
405	 2,74120834976345E-02 
406	 0,026817404617638 
407	 1,80608716897039E-02 
408	 2,04765547650901E-02 
409	 2,42062870262321E-02 
410	 2,58316126484115E-02 
411	 2,36624445038637E-02 
412	 1,88306310447663E-02 
413	 1,30237338986685E-02 
414	 1,81065559329758E-02 
415	 2,84564420783285E-02 
416	 0,025714002047718 
417	 2,10329885175914E-02 
418	 1,88137326579633E-02 
419	 1,48823686825996E-02 
420	 1,36138242054212E-02 
421	 2,08400375541738E-02 
422	 2,42447866428658E-02 
423	 2,29554162160634E-02 
424	 2,48765840635751E-02 
425	 2,47249298674044E-02 
426	 2,02326966872041E-02 
427	 2,04391724405634E-02 
428	 2,27051661645271E-02 
429	 1,98993939695487E-02 
430	 1,92122070934221E-02 
431	 2,18692164520101E-02 
432	 2,38606872327412E-02 
433	 2,50035799743342E-02 
434	 2,52255459833107E-02 
435	 2,32495452411689E-02 
436	 2,12166796909698E-02 
437	 2,58465212403191E-02 
438	 2,49312213393027E-02 
439	 1,62688710925119E-02 
440	 1,89562311710559E-02 
441	 2,51658458517975E-02 
442	 2,30460506324985E-02 
443	 2,20053774556144E-02 
444	 2,30742453789481E-02 
445	 2,20733746197936E-02 
446	 2,20320525173314E-02 
447	 0,024201355092149 
448	 2,22100160397782E-02 
449	 1,89435573194489E-02 
450	 2,11984045064697E-02 
451	 2,45216273107261E-02 
452	 2,69679082221877E-02 
453	 2,67996964060649E-02 
454	 2,50501430739401E-02 
455	 2,28352109697544E-02 
456	 2,02163755568269E-02 
457	 1,87528799849462E-02 
458	 2,22888846336743E-02 
459	 2,54578401605809E-02 
460	 2,59019522897182E-02 
461	 2,51540461327781E-02 
462	 0,024394770578781 
463	 2,50060996961448E-02 
464	 2,28879931721521E-02 
465	 1,91811336179388E-02 
466	 2,13522723710765E-02 
467	 2,40312219026145E-02 
468	 2,37428714385314E-02 
469	 2,40497886661053E-02 
470	 2,50079847676181E-02 
471	 2,58758579616358E-02 
472	 2,58778712933665E-02 
473	 0,025034596899274 
474	 2,48449437185928E-02 
475	 2,49378647130723E-02 
476	 2,48632556311562E-02 
477	 2,47103723789244E-02 
478	 2,45238098660415E-02 
479	 2,45962474527096E-02 
480	 2,36951690397928E-02 
481	 2,16808919236595E-02 
482	 2,14887514035175E-02 
483	 2,30223565768996E-02 
484	 2,57242390483528E-02 
485	 2,70243802379213E-02 
486	 2,62322533923575E-02 
487	 2,36016454057815E-02 
488	 2,30051855198188E-02 
489	 2,67814832880019E-02 
490	 0,026896631074998 
491	 0,024349307695521 
492	 2,45761556624118E-02 
493	 0,02419190963819 
494	 2,26419953534345E-02 
495	 2,28415728553564E-02 
496	 2,36017229425056E-02 
497	 2,33709985674875E-02 
498	 2,35733854910764E-02 
499	 0,024055100072197 
500	 2,32940279694339E-02 
501	 2,31014549890105E-02 
502	 2,43141656854217E-02 
503	 2,47355283716698E-02 
504	 2,48076296981505E-02 
505	 2,58154718535179E-02 
506	 2,69557480572406E-02 
507	 0,027598133374978 
508	 2,63729398965177E-02 
509	 2,42400527032195E-02 
510	 2,22855774573271E-02 
511	 2,27529067861559E-02 
512	 2,48633476452307E-02 
513	 2,56345573538443E-02 
514	 2,57847330747186E-02 
515	 2,56501367953718E-02 
516	 2,58096277519718E-02 
517	 2,60027518727408E-02 
518	 2,57537755330628E-02 
519	 2,57826711766467E-02 
520	 2,62960608438196E-02 
521	 2,75108229908673E-02 
522	 2,78275794974427E-02 
523	 2,63635301466326E-02 
524	 2,66953267128785E-02 
525	 2,81974993856782E-02 
526	 2,81826554530333E-02 
527	 2,80695508218232E-02 
528	 2,81970352667349E-02 
529	 2,78392415266773E-02 
530	 2,77045417505072E-02 
531	 2,86133074302917E-02 
532	 2,80920981820684E-02 
533	 2,65669859456281E-02 
534	 0,0270901060283 
535	 0,028191732418059 
536	 2,88904008576183E-02 
537	 2,87005444695036E-02 
538	 0,028057065578276 
539	 2,78355741921429E-02 
540	 2,81148328706431E-02 
541	 2,86910233443119E-02 
542	 2,83974326334178E-02 
543	 2,79671420018548E-02 
544	 2,81547191221288E-02 
545	 2,84129876717928E-02 
546	 2,86008355622627E-02 
547	 0,028640569889109 
548	 0,028679240515749 
549	 2,88221152213543E-02 
550	 2,92892872312084E-02 
551	 2,96262584511716E-02 
552	 2,90567742622385E-02 
553	 2,94011943718259E-02 
554	 3,05436939920622E-02 
555	 2,98054295606061E-02 
556	 2,89146981980032E-02 
557	 2,92958661754383E-02 
558	 2,94015894319084E-02 
559	 2,92166933356034E-02 
560	 2,93854488112335E-02 
561	 2,96407528656778E-02 
562	 2,97779869755135E-02 
563	 2,92474352732396E-02 
564	 0,028547053773427 
565	 2,83766847282842E-02 
566	 2,87904217763179E-02 
567	 2,95521668657226E-02 
568	 2,97917901793151E-02 
569	 3,00002184486402E-02 
570	 0,030433388545076 
571	 2,99829012258317E-02 
572	 2,93227433166611E-02 
573	 3,02241281491405E-02 
574	 3,14077490955103E-02 
575	 3,22882397085827E-02 
576	 3,25361451164288E-02 
577	 3,21078157086741E-02 
578	 3,10500844418758E-02 
579	 3,14939194903694E-02 
580	 3,31643083572081E-02 
581	 3,36696558564528E-02 
582	 0,033437929240715 
583	 3,27920456317808E-02 
584	 3,24230136742948E-02 
585	 3,25557795847828E-02 
586	 3,34088277275362E-02 
587	 3,37944889436654E-02 
588	 3,36390205759789E-02 
589	 3,45610639552671E-02 
590	 3,54156220723429E-02 
591	 3,51232163115409E-02 
592	 3,49480170342728E-02 
593	 3,50255346689242E-02 
594	 3,49804081513207E-02 
595	 3,49986086243457E-02 
596	 3,51673438687195E-02 
597	 3,54886186103792E-02 
598	 3,58209210999495E-02 
599	 3,59760802970684E-02 
600	 3,58147165458483E-02 
601	 3,54233867458315E-02 
602	 3,52505433998366E-02 
603	 3,52418674553969E-02 
604	 3,53576537066625E-02 
605	 3,58469867830006E-02 
606	 3,62351441077968E-02 
607	 0,0352437378531 
608	 3,44962354905556E-02 
609	 3,45181696415203E-02 
610	 3,43412290655271E-02 
611	 3,40188507652779E-02 
612	 3,37146015824061E-02 
613	 3,37323934598357E-02 
614	 3,39496054280981E-02 
615	 3,36524340517822E-02 
616	 3,35370921095362E-02 
617	 3,39172038090117E-02 
618	 3,31826367133436E-02 
619	 3,24521699361535E-02 
620	 3,45433023941951E-02 
621	 3,53444616296379E-02 
622	 3,40678044286604E-02 
623	 3,41209195282633E-02 
624	 3,43934246689352E-02 
625	 3,36038540518646E-02 
626	 3,35046718886216E-02 
627	 3,40889509244339E-02 
628	 3,42696763426765E-02 
629	 3,42973902900865E-02 
630	 3,43049860652812E-02 
631	 3,44585450688334E-02 
632	 3,46721037056557E-02 
633	 3,47833226838821E-02 
634	 3,45929197104159E-02 
635	 3,43419238919482E-02 
636	 3,52282011009828E-02 
637	 3,62708845931303E-02 
638	 3,65973164258063E-02 
639	 3,64880065779765E-02 
640	 3,62970035465161E-02 
641	 3,67951692403739E-02 
642	 3,72608530209185E-02 
643	 3,73979504972135E-02 
644	 3,73171606146385E-02 
645	 3,73068155234904E-02 
646	 3,77272612717503E-02 
647	 3,74877195126023E-02 
648	 0,036702113007393 
649	 3,67224612871095E-02 
650	 3,69908980527064E-02 
651	 3,70951418952429E-02 
652	 3,68797032956649E-02 
653	 0,036594208889705 
654	 3,68589112145458E-02 
655	 3,67818556444503E-02 
656	 3,61395158174379E-02 
657	 3,54814887157951E-02 
658	 3,47088384733596E-02 
659	 3,37149826857357E-02 
660	 3,32287508695395E-02 
661	 3,31909040878747E-02 
662	 3,30114899287996E-02 
663	 3,25134625843375E-02 
664	 3,17404844877331E-02 
665	 3,18110473131236E-02 
666	 3,22196663072352E-02 
667	 3,19687148238365E-02 
668	 3,19810870815681E-02 
669	 3,22835677620818E-02 
670	 3,20134759075929E-02 
671	 3,14946876184552E-02 
672	 3,10668313301709E-02 
673	 0,031356891884099 
674	 3,19991142883986E-02 
675	 3,18845364309113E-02 
676	 3,15693819462249E-02 
677	 3,13284232028689E-02 
678	 3,15089218351009E-02 
679	 3,19347336701299E-02 
680	 3,23538522911429E-02 
681	 3,26660009110993E-02 
682	 3,27803187181723E-02 
683	 3,24894542653176E-02 
684	 3,24102278439489E-02 
685	 3,29005852035931E-02 
686	 0,033524315669495 
687	 3,42484106229521E-02 
688	 3,51646891920656E-02 
689	 3,57434351392505E-02 
690	 3,61012243740798E-02 
691	 3,74680799397405E-02 
692	 3,90864302611443E-02 
693	 4,02732301131687E-02 
694	 4,18852788844966E-02 
695	 4,39611002004842E-02 
696	 4,61614674840444E-02 
697	 4,87044800599869E-02 
698	 5,15631250836258E-02 
699	 5,39853107613031E-02 
700	 5,67652351347987E-02 
701	 6,09919113495416E-02 
702	 6,47485185858522E-02 
703	 0,067775453629923 
704	 7,10111732257884E-02 
705	 7,43136861766227E-02 
706	 7,75767982480999E-02 
707	 8,06274477609145E-02 
708	 8,35737173781691E-02 
709	 8,66872801752812E-02 
710	 8,93946286595904E-02 
711	 9,16973155102762E-02 
712	 9,44846194552927E-02 
713	 9,70632734191977E-02 
714	 9,88109901132496E-02 
715	 0,100832474168658 
716	 0,103051284644368 
717	 0,104690488119693 
718	 0,106255649852353 
719	 0,107887154201489 
720	 0,109103602283329 
721	 0,110212124716461 
722	 0,111652562077892 
723	 0,112944468386776 
724	 0,113924977490893 
725	 0,114431394781143 
726	 0,115056496371066 
727	 0,116133603113763 
728	 0,117114143555428 
729	 0,117822190876527 
730	 0,118064359779145 
731	 0,118608164288461 
732	 0,119504356174544 
733	 0,119820952379875 
734	 0,120046247190205 
735	 0,120599417630061 
736	 0,120758916418244 
737	 0,120849132992756 
738	 0,122102324996555 
739	 0,122780908291987 
740	 0,122419475455668 
741	 0,12247380048742 
742	 0,122866716555752 
743	 0,123360302295381 
744	 0,123772221526493 
745	 0,124036038870423 
746	 0,124171273067904 
747	 0,124159016280101 
748	 0,124061590277322 
749	 0,124346667581363 
750	 0,124724016273884 
751	 0,124652988935028 
752	 0,124878874666787 
753	 0,125447132734236 
754	 0,125734896636921 
755	 0,125922758070496 
756	 0,126139326151445 
757	 0,126230570381477 
758	 0,126336122890471 
759	 0,12679652730313 
760	 0,127092292722321 
761	 0,127090483990494 
762	 0,127036184761091 
763	 0,127125843759197 
764	 0,127511547089802 
765	 0,127803727852643 
766	 0,127994548251881 
767	 0,12830112448386 
768	 0,128515012806785 
769	 0,128580972904121 
770	 0,128678616128138 
771	 0,128821951251003 
772	 0,129009559665207 
773	 0,129447505274332 
774	 0,129982657027847 
775	 0,130074329649325 
776	 0,129907728377737 
777	 0,12965620733693 
778	 0,129803491523806 
779	 0,130053236357166 
780	 0,129882780658879 
781	 0,129947602731188 
782	 0,130308322557528 
783	 0,130565954052797 
784	 0,130681155346056 
785	 0,130645213238634 
786	 0,130636875700078 
787	 0,130716036295527 
788	 0,130925689158631 
789	 0,131232881882232 
790	 0,131543178221172 
791	 0,131565376293456 
792	 0,131518916416129 
793	 0,131594271060162 
794	 0,131753071759055 
795	 0,131998528009881 
796	 0,132375989394034 
797	 0,132543263828853 
798	 0,132432628684503 
799	 0,132327568057022 
800	 0,132408395327505 
801	 0,132812277489663 
802	 0,13329228769234 
803	 0,133624268615982 
804	 0,133354030692026 
805	 0,13330252200338 
806	 0,133666193790122 
807	 0,133618505788539 
808	 0,133542037222957 
809	 0,133876253026576 
810	 0,13385768717494 
811	 0,133664335773646 
812	 0,134261328472035 
813	 0,134720390884007 
814	 0,13469794453532 
815	 0,134727645451306 
816	 0,134776288970895 
817	 0,134762280160314 
818	 0,135145625962012 
819	 0,13572284190563 
820	 0,13559448234514 
821	 0,135378801254965 
822	 0,13538312942155 
823	 0,135510387701093 
824	 0,13571512117186 
825	 0,13594492659746 
826	 0,136540501337466 
827	 0,137194415807715 
828	 0,136682909325604 
829	 0,136334029366499 
830	 0,136744778137005 
831	 0,136828924835271 
832	 0,136700900931989 
833	 0,136671760081827 
834	 0,13740279619555 
835	 0,138464038579589 
836	 0,137909585581102 
837	 0,137362880251176 
838	 0,137663111521246 
839	 0,137961556274581 
840	 0,138051507292591 
841	 0,137782333285721 
842	 0,137502734424087 
843	 0,137334492474143 
844	 0,137238036336841 
845	 0,137547947755855 
846	 0,138303017730331 
847	 0,138464762125531 
848	 0,13830393073931 
849	 0,138377771852302 
850	 0,138520967145149 
851	 0,13861641362617 
852	 0,138373811464832 
853	 0,138137114442134 
854	 0,138088959346277 
855	 0,138034974523695 
856	 0,138029824855223 
857	 0,138170268439327 
858	 0,138400082758548 
859	 0,13851655699016 
860	 0,137888616092192 
861	 0,137570439658008 
862	 0,138025450957332 
863	 0,138263713086627 
864	 0,138429727330044 
865	 0,138845062633849 
866	 0,139572748600136 
867	 0,140284472548641 
868	 0,13999813818422 
869	 0,139526939204846 
870	 0,139276043120464 
871	 0,138968408946429 
872	 0,139036101008555 
873	 0,139964540212279 
874	 0,14062412095574 
875	 0,140816556033405 
876	 0,140772494971935 
877	 0,140861485607429 
878	 0,141224901520479 
879	 0,141533773910636 
880	 0,141785043610695 
881	 0,141978485215072 
882	 0,141529260031833 
883	 0,140910079861204 
884	 0,141681914571678 
885	 0,142255239851083 
886	 0,142142940883078 
887	 0,142064841391367 
888	 0,142145870015386 
889	 0,142434463601049 
890	 0,142511498488461 
891	 0,142270482024593 
892	 0,141563748943706 
893	 0,141685960639212 
894	 0,142803882712158 
895	 0,143678148737653 
896	 0,143692823832746 
897	 0,142570298518023 
898	 0,142100282680913 
899	 0,142334685745633 
900	 0,142819946245489 
901	 0,142879004582611 
902	 0,142478624195042 
903	 0,142350995131206 
904	 0,142668692107821 
905	 0,14338149498481 
906	 0,143291968122392 
907	 0,142931427711331 
908	 0,143262630663348 
909	 0,142912912874156 
910	 0,142324289362255 
911	 0,144099296018049 
912	 0,144853600132065 
913	 0,143328251250245 
914	 0,142341773688661 
915	 0,142404031043309 
916	 0,143676970142447 
917	 0,144106624177057 
918	 0,143702603715319 
919	 0,14365857433083 
920	 0,143878513661081 
921	 0,144181247625458 
922	 0,143723500883522 
923	 0,142986169001881 
924	 0,142505006073703 
925	 0,142968415796446 
926	 0,143961834924207 
927	 0,14456175756501 
928	 0,144822951380848 
929	 0,144684446115992 
930	 0,143944580514299 
931	 0,143502476111157 
932	 0,143886629538929 
933	 0,144664584862146 
934	 0,145301811838353 
935	 0,145225426579165 
936	 0,145707022177385 
937	 0,146384078025417 
938	 0,14537981738222 
939	 0,144656359489478 
940	 0,144798892005154 
941	 0,144497908693268 
942	 0,144258385248339 
943	 0,144505642679926 
944	 0,14419891832251 
945	 0,143723967073963 
946	 0,144092325118353 
947	 0,144747575150646 
948	 0,145121672075261 
949	 0,143840794446935 
950	 0,142553779150477 
951	 0,142266189434737 
952	 0,142490937502938 
953	 0,142977338047546 
954	 0,143426939468684 
955	 0,142652491961653 
956	 0,141423070522217 
957	 0,142521702483839 
958	 0,142359087306558 
959	 0,140430484503479 
960	 0,140200774244573 
961	 0,141482985597471 
962	 0,143622689616142 
963	 0,143467543259329 
964	 0,141918565448247 
965	 0,141085967656029 
966	 0,140334316368325 
967	 0,140016294446678 
968	 0,141626115531067 
969	 0,142070441950273 
970	 0,140640245342514 
971	 0,14159746592388 
972	 0,142300877368029 
973	 0,140412944737044 
974	 0,139890323907382 
975	 0,140852297387289 
976	 0,14230557533265 
977	 0,142422942106344 
978	 0,141208361663966 
979	 0,14054219654447 
980	 0,141409585781224 
981	 0,143831693679429 
982	 0,144826580112559 
983	 0,144458336361816 
984	 0,143192787374352 
985	 0,14197703267016 
986	 0,141711672633637 
987	 0,143696280602716 
988	 0,143699116242831 
989	 0,14187474637893 
990	 0,143981270682034 
991	 0,144052589640395 
992	 0,140304968789333 
993	 0,141824260426412 
994	 0,145641177762282 
995	 0,147659119954892 
996	 0,146059034080132 
997	 0,143188030695634 
998	 0,144379741028658 
999	 0,14491864910125 
1000	 0,144755178555101 
1001	 0,149135244647063 
1002	 0,149611619206088 
1003	 0,143936398645991 
1004	 0,145300155031471 
1005	 0,149434913404207 
1006	 0,151037800061797 
1007	 0,150785460717562 
1008	 0,150308499681417 
1009	 0,152488715909727 
1010	 0,151641004076856 
1011	 0,147858268851605 
1012	 0,146004039629469 
1013	 0,147678631774605 
1014	 0,152166305890206 
1015	 0,152043827657899 
1016	 0,148745625779537 
1017	 0,144781085191013 
1018	 0,14712943061003 
1019	 0,151254785581176 
1020	 0,148995776643192 
1021	 0,147331765687376 
1022	 0,148219311720553 
1023	 0,152728264200642 
1024	 0,154115857619741 
1025	 0,151043049002356 
1026	 0,149366208041595 
1027	 0,15008579005598 
1028	 0,152770575179811 
1029	 0,149588132577611 
1030	 0,147365623088123 
1031	 0,153995053087434 
1032	 0,153993021837829 
1033	 0,1501620421637 
1034	 0,154276681487718 
1035	 0,156452851204954 
1036	 0,154607237348593 
1037	 0,150917897389497 
1038	 0,151560166453491 
1039	 0,156503073184964 
1040	 0,148883984142561 
1041	 0,143377940651474 
1042	 0,151056823322461 
1043	 0,151798790654113 
1044	 0,148365576374018 
1045	 0,148294181617967 
1046	 0,149662296551054 
1047	 0,153731640858643 
1048	 0,164037662987407 
1049	 0,166470447684602 
1050	 0,159681915063212 
1051	 0,156457436352914 
1052	 0,153607133728845 
1053	 0,15066458221578 
1054	 0,152804635495108 
1055	 0,159274889109486 
1056	 0,167244698984323 
1057	 0,164480487152701 
1058	 0,156610662344321 
1059	 0,154546231072793 
1060	 0,155191886391173 
1061	 0,157160474688926 
1062	 0,158465493149959 
1063	 0,16052912764264 
1064	 0,162503074927419 
1065	 0,15983679465623 
1066	 0,161841626738269 
1067	 0,166527295462187 
1068	 0,137704321581831 
1069	 0,127027679885175 
1070	 0,166934802000155 
1071	 0,170876621026425 
1072	 0,160587474548908 
1073	 0,169740135165958 
1074	 0,163424737035759 
1075	 0,151415179197482 
