Wavelength	SCORFF200092.asd
325	 0,57404962049234 
326	 0,596107171902003 
327	 0,54430970286973 
328	 0,428660817173613 
329	 0,446772835058894 
330	 0,490408798485587 
331	 0,48003317124656 
332	 0,476723305612433 
333	 0,482859477192997 
334	 0,492094815723902 
335	 0,459946144583132 
336	 0,404364356550149 
337	 0,375255783207252 
338	 0,337384534636035 
339	 0,28329905013025 
340	 0,317837392132611 
341	 0,377719993667781 
342	 0,323894462797662 
343	 0,331052806562979 
344	 0,404006906470671 
345	 0,349226698764535 
346	 0,273677807223476 
347	 0,290125460973631 
348	 0,311934572426361 
349	 0,326406253592367 
350	 0,35694263485091 
351	 0,338521945165294 
352	 0,271455097068609 
353	 0,286403995089472 
354	 0,320592482839534 
355	 0,295541670913068 
356	 0,269631624536174 
357	 0,263728417006601 
358	 0,286398514433484 
359	 0,295620536036031 
360	 0,276005117620049 
361	 0,258670020786325 
362	 0,257213369692323 
363	 0,283178474422816 
364	 0,293475966512874 
365	 0,288237060810498 
366	 0,304189243411635 
367	 0,304352897819886 
368	 0,271644188867968 
369	 0,253780136867901 
370	 0,25242309073575 
371	 0,25993162160596 
372	 0,264082480889717 
373	 0,263807388143927 
374	 0,272943420920022 
375	 0,282467499892829 
376	 0,285961083090137 
377	 0,279991922351836 
378	 0,27289646018492 
379	 0,284256932352548 
380	 0,278811091922756 
381	 0,255899185781604 
382	 0,276548492372553 
383	 0,299946911232265 
384	 0,288791961455809 
385	 0,267159752294353 
386	 0,251646339535432 
387	 0,271832972368125 
388	 0,28801097288746 
389	 0,284544305041269 
390	 0,276271588437163 
391	 0,272307405355983 
392	 0,282276476814472 
393	 0,274771908670355 
394	 0,255783068652382 
395	 0,266087381417808 
396	 0,27203637947669 
397	 0,259641190782189 
398	 0,253512912269885 
399	 0,258507862456194 
400	 0,278429323256273 
401	 0,278639367868733 
402	 0,257898778478471 
403	 0,245991942895524 
404	 0,245757585374079 
405	 0,25662278085773 
406	 0,258188913495993 
407	 0,255215863544076 
408	 0,264450305240042 
409	 0,266589357856739 
410	 0,25913336452681 
411	 0,2581485425642 
412	 0,25621797735549 
413	 0,24652902056682 
414	 0,244902255185165 
415	 0,249918829891128 
416	 0,250423133008594 
417	 0,253464581881573 
418	 0,259613020638231 
419	 0,256268726008502 
420	 0,250650366186096 
421	 0,253160862312954 
422	 0,253959518187227 
423	 0,252091311223842 
424	 0,252181254264295 
425	 0,251179758774219 
426	 0,24796415848686 
427	 0,249794136819729 
428	 0,25272159546959 
429	 0,247716470514182 
430	 0,24630785233952 
431	 0,250208057537905 
432	 0,251116571437388 
433	 0,251488803200444 
434	 0,25361229689665 
435	 0,254296884168525 
436	 0,25383804575756 
437	 0,2547612040823 
438	 0,25348725166573 
439	 0,249621663825797 
440	 0,249576632956398 
441	 0,251567572987255 
442	 0,252616875524808 
443	 0,252241702478669 
444	 0,250861063049299 
445	 0,250188539414981 
446	 0,25133371661727 
447	 0,254450919920897 
448	 0,254233375506238 
449	 0,253079070005234 
450	 0,256933265600195 
451	 0,25962049212462 
452	 0,259845265439721 
453	 0,261260094328547 
454	 0,261802409832562 
455	 0,259651884285048 
456	 0,258747357989702 
457	 0,25912263853129 
458	 0,258369740148491 
459	 0,25913615429431 
460	 0,261695783823356 
461	 0,260511988520272 
462	 0,258850625727408 
463	 0,261704243807114 
464	 0,261390485928322 
465	 0,25808909273365 
466	 0,259237410695071 
467	 0,261189399646675 
468	 0,261540141347939 
469	 0,26221563584281 
470	 0,262975843653109 
471	 0,262819005687709 
472	 0,262843341959464 
473	 0,263595091449072 
474	 0,266043547601304 
475	 0,267454145164043 
476	 0,265239075434158 
477	 0,262026357161347 
478	 0,259714278732753 
479	 0,261705302794219 
480	 0,26378634966151 
481	 0,263901600939438 
482	 0,263115331639263 
483	 0,262612089340285 
484	 0,263912879275689 
485	 0,26567480098389 
486	 0,266675898156598 
487	 0,263850710603135 
488	 0,261948610847947 
489	 0,264214457552434 
490	 0,264245400683333 
491	 0,262420109444839 
492	 0,262097343027752 
493	 0,261272546086746 
494	 0,259642958299054 
495	 0,258623516179886 
496	 0,259165884224822 
497	 0,262113093188035 
498	 0,263255153628235 
499	 0,262438852719131 
500	 0,262461808199164 
501	 0,262679285308134 
502	 0,262922691738665 
503	 0,26445425366913 
504	 0,266528665629667 
505	 0,267652897012703 
506	 0,268720279469715 
507	 0,26966733727841 
508	 0,269181600192369 
509	 0,268531037950418 
510	 0,268897055905356 
511	 0,269747833616307 
512	 0,270845593312042 
513	 0,271878198094552 
514	 0,272921253103163 
515	 0,273815743893263 
516	 0,273494293616703 
517	 0,272962900641332 
518	 0,273712860909883 
519	 0,274710653028916 
520	 0,27560770280719 
521	 0,276244902538569 
522	 0,276559372915277 
523	 0,276565998139568 
524	 0,276751803187956 
525	 0,277269999052758 
526	 0,278591680811329 
527	 0,278094918958624 
528	 0,275662128413231 
529	 0,276013175541408 
530	 0,277208157381906 
531	 0,276653853165811 
532	 0,275656767667639 
533	 0,274863977412304 
534	 0,275338583437698 
535	 0,276009775342939 
536	 0,276197433137579 
537	 0,275907573944116 
538	 0,275693283560599 
539	 0,27666074026686 
540	 0,276733564279528 
541	 0,275773312705689 
542	 0,27630304403867 
543	 0,277356324124883 
544	 0,277856518537538 
545	 0,277652616290811 
546	 0,277313164289078 
547	 0,278636227188539 
548	 0,279517561370014 
549	 0,279122287985033 
550	 0,279389987236838 
551	 0,2801967857606 
552	 0,281039985711353 
553	 0,281427853199871 
554	 0,281117189278539 
555	 0,279830639183254 
556	 0,278930114644846 
557	 0,279422202051315 
558	 0,279142582850952 
559	 0,277979581307827 
560	 0,276532884667581 
561	 0,275702485635318 
562	 0,275746115032284 
563	 0,275356612976178 
564	 0,274781174561645 
565	 0,274495701249498 
566	 0,275179695147532 
567	 0,276604248421771 
568	 0,277375238362142 
569	 0,277900657502037 
570	 0,278513452189845 
571	 0,279461591603524 
572	 0,280857959024863 
573	 0,282801352563857 
574	 0,28510469230771 
575	 0,287620653742826 
576	 0,290282692098318 
577	 0,292386039258904 
578	 0,293229203324189 
579	 0,29496644295302 
580	 0,297677066696384 
581	 0,299979105703747 
582	 0,301883239532476 
583	 0,303415034354875 
584	 0,304985717328871 
585	 0,306712244920568 
586	 0,308772512426151 
587	 0,309833186852607 
588	 0,310035712691834 
589	 0,311930647365715 
590	 0,314140513599881 
591	 0,315297558053967 
592	 0,31639675450222 
593	 0,317390053036589 
594	 0,317566587442395 
595	 0,318018692614939 
596	 0,319083087714788 
597	 0,319241798204018 
598	 0,318987591794758 
599	 0,319299511871451 
600	 0,319341922475534 
601	 0,318987281047854 
602	 0,318622079732661 
603	 0,318306383667462 
604	 0,318037300743017 
605	 0,317286779682954 
606	 0,316135643050495 
607	 0,314918101014492 
608	 0,314045334510939 
609	 0,313527864921834 
610	 0,312212919416021 
611	 0,310850004728285 
612	 0,310458891362004 
613	 0,309644388719563 
614	 0,308454227294954 
615	 0,308240117739977 
616	 0,30807705388276 
617	 0,307369047978976 
618	 0,306371402979775 
619	 0,305616501657017 
620	 0,306107937297845 
621	 0,306407853437551 
622	 0,306108174495638 
623	 0,305823599525733 
624	 0,305681016431707 
625	 0,305767607690206 
626	 0,305839884237385 
627	 0,305916233127405 
628	 0,306232225726912 
629	 0,306512887343505 
630	 0,306690395338136 
631	 0,307351569168653 
632	 0,308250480387334 
633	 0,308869340413382 
634	 0,309726765756185 
635	 0,310937372130289 
636	 0,312341526379591 
637	 0,313741090945637 
638	 0,314967979967084 
639	 0,315985530772218 
640	 0,317106786125725 
641	 0,319279295838684 
642	 0,320747582368974 
643	 0,320978664115481 
644	 0,321637791835653 
645	 0,322404180910687 
646	 0,322662271340588 
647	 0,322757892011272 
648	 0,322643408899995 
649	 0,321953402439845 
650	 0,320847069568097 
651	 0,319431159028442 
652	 0,31759148073932 
653	 0,315501306746432 
654	 0,313491520879532 
655	 0,311643089678028 
656	 0,309869908298939 
657	 0,307662321549918 
658	 0,305010807482123 
659	 0,301968097231489 
660	 0,299053377273526 
661	 0,296298047742968 
662	 0,293289448995035 
663	 0,290634166757531 
664	 0,288588808208477 
665	 0,28658229429192 
666	 0,284646952518761 
667	 0,282922675318649 
668	 0,281583846184222 
669	 0,280545666917092 
670	 0,279295393202505 
671	 0,27800378549156 
672	 0,276880413097221 
673	 0,276612612059207 
674	 0,276849480478267 
675	 0,276524839422842 
676	 0,275996425971479 
677	 0,275525440231231 
678	 0,275879361184133 
679	 0,276559763543797 
680	 0,276904194618097 
681	 0,277242520400094 
682	 0,277901650833296 
683	 0,279607473197347 
684	 0,281665926505471 
685	 0,283735200652048 
686	 0,286612668029599 
687	 0,290124814024377 
688	 0,293753155373263 
689	 0,298074160427678 
690	 0,303360227584442 
691	 0,309863303893035 
692	 0,317207394510425 
693	 0,325068544731035 
694	 0,333895402554923 
695	 0,343678361097632 
696	 0,354207584763568 
697	 0,365573490947009 
698	 0,377595774203474 
699	 0,389227283252757 
700	 0,400781647832265 
701	 0,412820021512559 
702	 0,424726574027233 
703	 0,436271948731758 
704	 0,447450306487294 
705	 0,457981091132167 
706	 0,46772989800932 
707	 0,477233686392729 
708	 0,486429345050881 
709	 0,49498374550876 
710	 0,503227814779971 
711	 0,511170146452081 
712	 0,518344357981003 
713	 0,524876392848753 
714	 0,530904976318756 
715	 0,536424760988366 
716	 0,541463293603435 
717	 0,54598148680064 
718	 0,550540814792227 
719	 0,555170680274281 
720	 0,558385311110079 
721	 0,561167022443314 
722	 0,564932189877538 
723	 0,567953654634853 
724	 0,570020615140655 
725	 0,571806908237945 
726	 0,57378531744219 
727	 0,576170759772124 
728	 0,577989829114488 
729	 0,579352488580529 
730	 0,580711807906602 
731	 0,581914684373456 
732	 0,582987226599693 
733	 0,584160891514598 
734	 0,58525854173691 
735	 0,586114814575545 
736	 0,586702088547593 
737	 0,587287446256343 
738	 0,588619374025817 
739	 0,589509640942819 
740	 0,589584229223406 
741	 0,589577465537922 
742	 0,589718113772538 
743	 0,59018675241308 
744	 0,590714295076341 
745	 0,591148959960623 
746	 0,591233688730016 
747	 0,591445635715924 
748	 0,591981635913936 
749	 0,592207071228991 
750	 0,592348983383643 
751	 0,592871409813024 
752	 0,593333266003775 
753	 0,593637552731088 
754	 0,59391419170791 
755	 0,594172806850182 
756	 0,594419170491064 
757	 0,59455053502802 
758	 0,594844115985824 
759	 0,595929459544613 
760	 0,596682324656691 
761	 0,596853108008779 
762	 0,597272132534252 
763	 0,597696453282306 
764	 0,597871214470018 
765	 0,597970444805897 
766	 0,598179165976863 
767	 0,598937511560996 
768	 0,599415414645389 
769	 0,599324653059707 
770	 0,599218690436262 
771	 0,59910820151192 
772	 0,598953912889739 
773	 0,598991036994235 
774	 0,599217724916452 
775	 0,599498257643177 
776	 0,59961336332613 
777	 0,599417843819121 
778	 0,59885936744231 
779	 0,59828205071178 
780	 0,598171700853694 
781	 0,598256868278872 
782	 0,598431377254261 
783	 0,598645459199752 
784	 0,59865642493382 
785	 0,598338630240828 
786	 0,598063954043351 
787	 0,597956925514036 
788	 0,598125820030705 
789	 0,598296710404587 
790	 0,598410881595119 
791	 0,598658000650232 
792	 0,598855582512935 
793	 0,598881041012337 
794	 0,599119123372524 
795	 0,599401002829559 
796	 0,599184994451483 
797	 0,599310658935916 
798	 0,599921048946536 
799	 0,600232184001645 
800	 0,600428809778346 
801	 0,600700581944927 
802	 0,600693874175189 
803	 0,600460831730403 
804	 0,600223243310441 
805	 0,600271444742543 
806	 0,600683205475092 
807	 0,601170186203139 
808	 0,601383194649754 
809	 0,601014282674716 
810	 0,60087897531294 
811	 0,601006970100423 
812	 0,60095497808922 
813	 0,600890560482969 
814	 0,60084090919127 
815	 0,600596461195006 
816	 0,60031762350107 
817	 0,600219848536627 
818	 0,600581370314707 
819	 0,601181583327409 
820	 0,601220502356497 
821	 0,601038838066366 
822	 0,600874956096546 
823	 0,601155251067379 
824	 0,601548359485272 
825	 0,601576883307925 
826	 0,601807450353063 
827	 0,602217513668956 
828	 0,602299674337966 
829	 0,602445167886025 
830	 0,602779941048081 
831	 0,602685435392144 
832	 0,602552472890085 
833	 0,602985835126274 
834	 0,603728919132178 
835	 0,60448273226218 
836	 0,604585404323261 
837	 0,604426686752828 
838	 0,60427268010948 
839	 0,604343713558259 
840	 0,604460013093401 
841	 0,604326902349892 
842	 0,604296376527225 
843	 0,604339879744449 
844	 0,604060980953085 
845	 0,603791225949859 
846	 0,603718084071079 
847	 0,603795321358579 
848	 0,603713342293269 
849	 0,603058275731077 
850	 0,603201309994997 
851	 0,603802682535739 
852	 0,602497552262774 
853	 0,601500532843182 
854	 0,601872770393172 
855	 0,60192415775698 
856	 0,601815283321645 
857	 0,602015754079315 
858	 0,601743564067697 
859	 0,6011073873903 
860	 0,60102129738584 
861	 0,601162018242938 
862	 0,60133869203916 
863	 0,601449312754975 
864	 0,601423079029057 
865	 0,601206896475388 
866	 0,601571973454053 
867	 0,602443526145124 
868	 0,603118730677804 
869	 0,603128293339429 
870	 0,602529984916804 
871	 0,603298959956085 
872	 0,604353692949881 
873	 0,604217277503974 
874	 0,604518643802077 
875	 0,605336430157841 
876	 0,605874759659191 
877	 0,606321478034283 
878	 0,60675137616591 
879	 0,607262031786181 
880	 0,607755115147918 
881	 0,608082689257925 
882	 0,607615177747523 
883	 0,606733084399439 
884	 0,606639988419287 
885	 0,607122903594746 
886	 0,607926629746111 
887	 0,608057878564329 
888	 0,608013251221792 
889	 0,608297913934013 
890	 0,608523728301658 
891	 0,608432135456636 
892	 0,607580912425053 
893	 0,606923436456228 
894	 0,606782175103442 
895	 0,606957346618665 
896	 0,606988701860478 
897	 0,606490718118688 
898	 0,605291012405823 
899	 0,604357558452784 
900	 0,605428306365845 
901	 0,605780176636962 
902	 0,604882921300832 
903	 0,603991023571561 
904	 0,60330605026826 
905	 0,603016362105087 
906	 0,60332633720576 
907	 0,603767096375623 
908	 0,603663539784723 
909	 0,603472725145198 
910	 0,603288766746891 
911	 0,603016951132817 
912	 0,603010979288329 
913	 0,603192369594641 
914	 0,601897001945294 
915	 0,601025165855005 
916	 0,602656256373729 
917	 0,603098961249334 
918	 0,602628990231958 
919	 0,604114988842628 
920	 0,604420828980247 
921	 0,602954388951596 
922	 0,602201328435801 
923	 0,602480653113683 
924	 0,60377941503619 
925	 0,604107985270038 
926	 0,603844489414171 
927	 0,60435363531755 
928	 0,603966133331349 
929	 0,602818995116553 
930	 0,602994370140851 
931	 0,603938919699615 
932	 0,6050251833291 
933	 0,604389387851462 
934	 0,603710595600035 
935	 0,605303474551143 
936	 0,605713914966879 
937	 0,604614404459182 
938	 0,603091377119987 
939	 0,603088541978712 
940	 0,604753329057956 
941	 0,604352526373296 
942	 0,602955013454414 
943	 0,601841811479185 
944	 0,601994916455184 
945	 0,602639682833189 
946	 0,602031031598655 
947	 0,600729378400255 
948	 0,599298739709767 
949	 0,599204196231492 
950	 0,598913669391965 
951	 0,597691057702496 
952	 0,596932935859641 
953	 0,596544193438956 
954	 0,596222914372072 
955	 0,595838497497044 
956	 0,595342665607676 
957	 0,59484228282663 
958	 0,5935741714776 
959	 0,591571006772309 
960	 0,589968401489906 
961	 0,589699977607818 
962	 0,591067866279818 
963	 0,59080517050814 
964	 0,589513666852296 
965	 0,588858004850458 
966	 0,588726223774483 
967	 0,588740058434072 
968	 0,587530962549172 
969	 0,587195012472818 
970	 0,588273351123393 
971	 0,588465502145245 
972	 0,588254705877784 
973	 0,588226437332838 
974	 0,588366522732532 
975	 0,588381508372316 
976	 0,587727303488329 
977	 0,5875674725306 
978	 0,587842582089027 
979	 0,586836054260679 
980	 0,587580931219119 
981	 0,59079958082754 
982	 0,591404607303378 
983	 0,590738129090068 
984	 0,590651825537413 
985	 0,591084018318258 
986	 0,592026257441064 
987	 0,593424124537463 
988	 0,593555360991327 
989	 0,592397345227754 
990	 0,591633977926161 
991	 0,592343281182065 
992	 0,594572653275992 
993	 0,594797402349797 
994	 0,594513038948409 
995	 0,595441301266452 
996	 0,59486841750062 
997	 0,593831613095909 
998	 0,595181034803617 
999	 0,597083125807115 
1000	 0,598641806079129 
1001	 0,598723628824406 
1002	 0,598286615989227 
1003	 0,598323874811769 
1004	 0,601459309093102 
1005	 0,603712457730973 
1006	 0,601459658751785 
1007	 0,600814796010832 
1008	 0,602064693343126 
1009	 0,603867222937784 
1010	 0,600752535435901 
1011	 0,594417816022469 
1012	 0,594986473520495 
1013	 0,598685383799518 
1014	 0,602885267543634 
1015	 0,603918726886206 
1016	 0,601813607965372 
1017	 0,597724238546713 
1018	 0,5987596500192 
1019	 0,602564682975967 
1020	 0,603981809796522 
1021	 0,605070394733214 
1022	 0,605533172681407 
1023	 0,603618085266791 
1024	 0,601751013870274 
1025	 0,601279741130416 
1026	 0,603450594301976 
1027	 0,606594236215112 
1028	 0,608830571970228 
1029	 0,60602085336866 
1030	 0,602946566491139 
1031	 0,605269643717422 
1032	 0,606311720409303 
1033	 0,606086095235522 
1034	 0,607090294540366 
1035	 0,611206019734876 
1036	 0,615779543508328 
1037	 0,609573588070397 
1038	 0,604156700097615 
1039	 0,604193552269189 
1040	 0,602725148509988 
1041	 0,602663225453001 
1042	 0,605953195328397 
1043	 0,606440134007948 
1044	 0,60520404880698 
1045	 0,605034562614633 
1046	 0,608737079972252 
1047	 0,613427315499869 
1048	 0,609929308244316 
1049	 0,614770317348139 
1050	 0,627139678431994 
1051	 0,62136680003979 
1052	 0,619193980684632 
1053	 0,628184398296646 
1054	 0,625055061285962 
1055	 0,619703751382302 
1056	 0,621765068509144 
1057	 0,627584830840233 
1058	 0,628844233022505 
1059	 0,615402764885986 
1060	 0,61494734813401 
1061	 0,622278369842155 
1062	 0,611615534091326 
1063	 0,606190992190861 
1064	 0,612576162344105 
1065	 0,62953464052403 
1066	 0,63360916263437 
1067	 0,618210612106338 
1068	 0,608740121841209 
1069	 0,611915801670255 
1070	 0,628299945339881 
1071	 0,633203937905328 
1072	 0,628505889468519 
1073	 0,620508658515882 
1074	 0,619176949425139 
1075	 0,622264655012444 
