Wavelength	SCORFF200585.asd
325	 0,13383147068612 
326	 0,181070194164888 
327	 0,1392198374243 
328	 4,23762645352541E-02 
329	 0,146556438132507 
330	 0,234474449176305 
331	 0,156206415620642 
332	 7,08375505482768E-02 
333	 2,54580983705975E-02 
334	-1,60985905016921E-02 
335	 0,050431687603034 
336	 0,17208597160783 
337	 0,186965919092661 
338	 0,101793325422905 
339	-6,44100641718025E-02 
340	-8,22795382493851E-02 
341	-7,37609461965151E-03 
342	-5,88865669223208E-03 
343	 2,52747083174931E-02 
344	 8,57998012647444E-02 
345	 0,110261855014535 
346	 8,85624778276859E-02 
347	 0,01295009375466 
348	 1,68220696112091E-02 
349	 7,32286469709162E-02 
350	 7,15054163719614E-02 
351	 5,92819587047275E-02 
352	 5,59977077009364E-02 
353	 5,57326401186428E-02 
354	 4,54227149544977E-02 
355	 9,11342986382772E-03 
356	 4,8952821160691E-03 
357	 3,41301854257348E-02 
358	 6,33793706861887E-02 
359	 7,52828780451457E-02 
360	 6,09363381062231E-02 
361	 1,43121997462192E-02 
362	-1,60455473985046E-02 
363	 3,71519918515165E-02 
364	 5,48351960624428E-02 
365	 2,95802738579124E-02 
366	 2,84017314248068E-02 
367	 3,18985744974507E-02 
368	 2,65865984382359E-02 
369	 2,01590352134875E-03 
370	-2,02988267574739E-02 
371	 4,96587378970998E-03 
372	 2,30081714644551E-02 
373	 2,10674766974736E-02 
374	 1,44304404790463E-02 
375	 1,23793644727517E-02 
376	 2,05170755367356E-02 
377	 2,85396949536399E-02 
378	 3,32751235908172E-02 
379	 3,43521494685918E-02 
380	 2,73283754948156E-02 
381	 1,63049035829297E-02 
382	 2,94953232139387E-02 
383	 0,042569712260421 
384	 3,37669278096522E-02 
385	 1,72758205258785E-02 
386	 3,21291316582972E-03 
387	 6,99709011587195E-03 
388	 2,05967054014694E-02 
389	 3,48788424939492E-02 
390	 2,81421465174586E-02 
391	 1,32270681353747E-02 
392	 8,42122917127298E-03 
393	 4,59183957315393E-03 
394	 3,27416665278497E-03 
395	 1,65376331361269E-02 
396	 0,02116705148502 
397	 8,7442187273335E-03 
398	 4,51193670937879E-03 
399	 9,65993402800328E-03 
400	 2,20665454207373E-02 
401	 2,09088718872787E-02 
402	 6,94613227451803E-03 
403	 2,76576435342528E-03 
404	 9,10069462991803E-03 
405	 2,37175757396548E-02 
406	 2,71526108752554E-02 
407	 2,31675334065929E-02 
408	 2,56297577772573E-02 
409	 2,14995054247556E-02 
410	 1,18466925991537E-02 
411	 1,86571109394813E-02 
412	 2,23178648492298E-02 
413	 5,65168311528382E-03 
414	 0,007690611371414 
415	 2,25332317528507E-02 
416	 1,78180013030933E-02 
417	 0,013619248134299 
418	 1,61349069654189E-02 
419	 0,010575449577839 
420	 4,7987772462614E-03 
421	 1,01815645254255E-02 
422	 1,32593748448345E-02 
423	 1,28058854635133E-02 
424	 1,57817264479282E-02 
425	 1,87290010295157E-02 
426	 1,93734329675652E-02 
427	 1,66840592632805E-02 
428	 1,28940279031321E-02 
429	 1,18945393145079E-02 
430	 1,18139760644844E-02 
431	 1,19818384607776E-02 
432	 1,15094156859497E-02 
433	 1,21318720415543E-02 
434	 1,51981928011769E-02 
435	 0,017416749794625 
436	 1,79685036028711E-02 
437	 1,64604693480112E-02 
438	 1,49275115344076E-02 
439	 1,44226986188721E-02 
440	 1,51855532654752E-02 
441	 1,55316422327181E-02 
442	 0,013364258516157 
443	 1,39501099216739E-02 
444	 0,017239475937626 
445	 1,92877188335583E-02 
446	 1,83351356172172E-02 
447	 1,39512942263822E-02 
448	 1,23656084233215E-02 
449	 1,36714754615542E-02 
450	 1,64521832012508E-02 
451	 1,71863237774341E-02 
452	 0,015503924721932 
453	 1,61118727641602E-02 
454	 0,016489932996728 
455	 1,42683345909652E-02 
456	 1,22963886741237E-02 
457	 1,16815876748896E-02 
458	 1,35474216579274E-02 
459	 1,66349777726655E-02 
460	 1,94020808670048E-02 
461	 1,66391669838233E-02 
462	 1,29807276733879E-02 
463	 1,51372996419252E-02 
464	 1,48576963902775E-02 
465	 0,011885268268343 
466	 1,23394565883039E-02 
467	 1,48794863622315E-02 
468	 1,81184924126775E-02 
469	 0,018969317987908 
470	 1,77409717003723E-02 
471	 0,015796661988246 
472	 1,53043465966152E-02 
473	 1,65171649159485E-02 
474	 1,60927109263117E-02 
475	 1,62376299543169E-02 
476	 1,89989929011815E-02 
477	 1,75385668885347E-02 
478	 1,29619062266576E-02 
479	 1,20298511776929E-02 
480	 1,16983124919596E-02 
481	 1,10236331525444E-02 
482	 1,31576076333171E-02 
483	 1,58459147472259E-02 
484	 1,54839039389386E-02 
485	 1,47982250429202E-02 
486	 1,43320171292876E-02 
487	 1,29192681848942E-02 
488	 1,26113227354353E-02 
489	 1,47638908408495E-02 
490	 1,67206091061873E-02 
491	 1,72688114341901E-02 
492	 1,44630526170629E-02 
493	 1,29573328288964E-02 
494	 1,40813535615332E-02 
495	 1,47974994447368E-02 
496	 1,48626976863587E-02 
497	 1,42990028451777E-02 
498	 1,43313159653367E-02 
499	 1,47015373982124E-02 
500	 1,34731257689197E-02 
501	 1,30368818994005E-02 
502	 1,45171785641701E-02 
503	 1,52516946711322E-02 
504	 1,53838750019379E-02 
505	 1,58163271771153E-02 
506	 1,63053133732962E-02 
507	 1,64414730336912E-02 
508	 1,45772882772013E-02 
509	 1,32017523914722E-02 
510	 1,44450858996155E-02 
511	 1,48335959595503E-02 
512	 1,43062176405828E-02 
513	 1,43924166152003E-02 
514	 1,51451939823114E-02 
515	 1,62398645499853E-02 
516	 1,53662960321427E-02 
517	 1,37526208910859E-02 
518	 1,33671194177484E-02 
519	 1,39171579388003E-02 
520	 1,50754685537716E-02 
521	 1,60069980194425E-02 
522	 1,62612520188898E-02 
523	 1,56479155525797E-02 
524	 1,56933122676081E-02 
525	 1,61372243323028E-02 
526	 1,58193056565889E-02 
527	 1,52893593329292E-02 
528	 1,49061476933532E-02 
529	 1,55993503020584E-02 
530	 1,62046072269505E-02 
531	 1,53578178626497E-02 
532	 1,46579743337387E-02 
533	 1,44995044942657E-02 
534	 1,47975487511634E-02 
535	 0,015353197752743 
536	 1,59468265414542E-02 
537	 1,60048303937297E-02 
538	 1,56745530812711E-02 
539	 1,54026456818227E-02 
540	 1,47017487488066E-02 
541	 1,39284757606433E-02 
542	 0,015261044778156 
543	 1,67164476212476E-02 
544	 1,63175914528013E-02 
545	 1,55854161719067E-02 
546	 1,50726831192295E-02 
547	 1,53960146688184E-02 
548	 1,56493787450403E-02 
549	 1,54497067777857E-02 
550	 1,55323347130995E-02 
551	 1,57905494594207E-02 
552	 1,59407722394363E-02 
553	 1,60115485150156E-02 
554	 1,60531290125488E-02 
555	 1,63229316177472E-02 
556	 1,63838177318693E-02 
557	 0,015924750231298 
558	 1,58093502301536E-02 
559	 1,60395997461111E-02 
560	 1,62347021531225E-02 
561	 1,63155167604026E-02 
562	 1,62382947891645E-02 
563	 1,61446128494179E-02 
564	 1,59526935423706E-02 
565	 1,55321815777916E-02 
566	 1,55561517013462E-02 
567	 1,59687482227151E-02 
568	 1,59087035381896E-02 
569	 1,58634991046443E-02 
570	 1,61311694868144E-02 
571	 1,60740015849083E-02 
572	 1,59094420988166E-02 
573	 1,63056500035679E-02 
574	 0,016813420289414 
575	 1,72210575948344E-02 
576	 1,73895775188275E-02 
577	 1,72550294967237E-02 
578	 1,67916703572915E-02 
579	 1,71857522371365E-02 
580	 1,81774785229442E-02 
581	 1,81301455458646E-02 
582	 1,76431116318552E-02 
583	 1,71462496644012E-02 
584	 1,71549950181659E-02 
585	 1,75656116367181E-02 
586	 1,80934705546555E-02 
587	 1,81937450889973E-02 
588	 1,79065531470201E-02 
589	 1,83081387851256E-02 
590	 1,88813406987176E-02 
591	 1,90805575227039E-02 
592	 1,87301093568596E-02 
593	 1,81295330993469E-02 
594	 1,81741858142868E-02 
595	 1,82510985359537E-02 
596	 1,81506600901361E-02 
597	 1,84197706725266E-02 
598	 1,88728001656816E-02 
599	 1,91818477748213E-02 
600	 1,89744189402733E-02 
601	 1,83319839642316E-02 
602	 1,80142868992066E-02 
603	 0,017788308434635 
604	 1,75241921903174E-02 
605	 1,81540339106205E-02 
606	 1,90306667568091E-02 
607	 1,81712832448585E-02 
608	 0,0176240432756 
609	 1,79890667975477E-02 
610	 1,78321779938792E-02 
611	 1,76291701961132E-02 
612	 1,80978382719159E-02 
613	 1,77892564848767E-02 
614	 1,69354120855813E-02 
615	 1,75323902087271E-02 
616	 1,81791960299543E-02 
617	 1,79861963785956E-02 
618	 1,74802850247058E-02 
619	 1,72773829850213E-02 
620	 1,85379214203196E-02 
621	 1,90257743731849E-02 
622	 1,82394422567709E-02 
623	 1,77033417944301E-02 
624	 1,75764721292746E-02 
625	 1,79021839470239E-02 
626	 1,80762488633474E-02 
627	 1,80455049329135E-02 
628	 1,81353119191083E-02 
629	 1,81210417159898E-02 
630	 1,79365493992466E-02 
631	 1,79435798732024E-02 
632	 1,80638896508239E-02 
633	 1,80984670298497E-02 
634	 0,018106905745218 
635	 1,82101783718171E-02 
636	 1,88661276898431E-02 
637	 1,94355802496738E-02 
638	 1,93780658686399E-02 
639	 1,90629474497923E-02 
640	 1,88875382728955E-02 
641	 1,97100506125191E-02 
642	 2,03163921304126E-02 
643	 2,01841403336236E-02 
644	 1,94616944902332E-02 
645	 1,90436904880833E-02 
646	 2,00475305411311E-02 
647	 2,00410250859368E-02 
648	 1,90015065325889E-02 
649	 1,90934103757907E-02 
650	 0,019593073492635 
651	 1,99126146293693E-02 
652	 1,93048281330446E-02 
653	 1,84607305944021E-02 
654	 1,90842885894655E-02 
655	 1,92848764353496E-02 
656	 0,018619807930131 
657	 1,82207723974137E-02 
658	 1,80231415024762E-02 
659	 1,78892729721406E-02 
660	 1,78347374535226E-02 
661	 1,77643496259125E-02 
662	 1,74361380078019E-02 
663	 1,70462421779219E-02 
664	 0,016767713609764 
665	 1,70073642011363E-02 
666	 1,74280187752026E-02 
667	 0,017459755788063 
668	 1,71933447245464E-02 
669	 1,67650710701888E-02 
670	 0,016620020163413 
671	 1,65375322695594E-02 
672	 0,016351856965852 
673	 1,63593160987914E-02 
674	 0,016577251619543 
675	 1,70220561575927E-02 
676	 1,70427863412692E-02 
677	 1,65378376826573E-02 
678	 1,64509873039246E-02 
679	 1,67727166151872E-02 
680	 1,73795024560486E-02 
681	 1,75336419499015E-02 
682	 1,72959440514077E-02 
683	 1,75350130320436E-02 
684	 1,76647432238639E-02 
685	 1,74367535170746E-02 
686	 1,77688111736291E-02 
687	 1,83655132286865E-02 
688	 1,85014555333384E-02 
689	 1,85154107377148E-02 
690	 1,86431473771668E-02 
691	 0,019415704887592 
692	 2,03489107530867E-02 
693	 2,10064872822156E-02 
694	 2,18312065335841E-02 
695	 2,28931595840224E-02 
696	 2,41659757142014E-02 
697	 2,55178308854351E-02 
698	 2,68968146801685E-02 
699	 2,84015494500753E-02 
700	 2,99974008639294E-02 
701	 3,16323440901208E-02 
702	 3,33383394460605E-02 
703	 3,50306298134504E-02 
704	 3,64297632580329E-02 
705	 3,78617504506868E-02 
706	 3,94849446246528E-02 
707	 4,07546420095836E-02 
708	 0,041834643580813 
709	 4,31357809015349E-02 
710	 4,47100101522639E-02 
711	 4,63658326048426E-02 
712	 4,71621001997278E-02 
713	 4,77977612367652E-02 
714	 4,89323465021456E-02 
715	 4,98762747842489E-02 
716	 5,06302920502358E-02 
717	 5,15630282048856E-02 
718	 5,23485794424769E-02 
719	 5,28383355706081E-02 
720	 5,29735309501597E-02 
721	 5,32248015107553E-02 
722	 5,41796389157689E-02 
723	 5,47606879269873E-02 
724	 5,48832625598247E-02 
725	 5,52229954745391E-02 
726	 5,56027391677486E-02 
727	 0,055912124443775 
728	 5,61497693842953E-02 
729	 5,63223545521775E-02 
730	 5,64144863714047E-02 
731	 5,68419254060283E-02 
732	 5,75636823722039E-02 
733	 5,78479114456578E-02 
734	 5,79484904688352E-02 
735	 5,80818882318819E-02 
736	 5,76517493248944E-02 
737	 5,71740100005799E-02 
738	 5,82333875455084E-02 
739	 5,89258495527005E-02 
740	 5,86826610129753E-02 
741	 5,88019313746089E-02 
742	 0,059116590128925 
743	 5,93118421750864E-02 
744	 5,92244715753134E-02 
745	 5,90557637362021E-02 
746	 5,96330194047796E-02 
747	 5,98147564997196E-02 
748	 5,91487594939479E-02 
749	 5,90789146254045E-02 
750	 5,95266554827132E-02 
751	 6,01069318445138E-02 
752	 6,03712321102919E-02 
753	 6,03083489244311E-02 
754	 6,04871017058395E-02 
755	 6,07708290880946E-02 
756	 0,061007247002194 
757	 6,07237488389598E-02 
758	 6,03598472635785E-02 
759	 6,09771973505776E-02 
760	 0,061387247389132 
761	 0,061283197403566 
762	 6,11953872007586E-02 
763	 6,13043766377243E-02 
764	 6,17295069102057E-02 
765	 6,20576919627354E-02 
766	 6,21033742051504E-02 
767	 6,15206405627396E-02 
768	 0,061470181750243 
769	 6,22344285398163E-02 
770	 6,23840783806503E-02 
771	 6,22734661302713E-02 
772	 6,24583810642661E-02 
773	 6,25044680650926E-02 
774	 6,24331406623156E-02 
775	 6,25678324792622E-02 
776	 6,28091807692756E-02 
777	 6,30132932212736E-02 
778	 6,25500305919888E-02 
779	 6,20097375774149E-02 
780	 6,23330200687842E-02 
781	 6,29616271943877E-02 
782	 6,35959212100025E-02 
783	 6,38255646407694E-02 
784	 6,37581351627175E-02 
785	 0,063508731378197 
786	 6,33258606896099E-02 
787	 6,33511842946257E-02 
788	 6,37592664995226E-02 
789	 6,39916531050242E-02 
790	 6,39494187720071E-02 
791	 6,40716684043543E-02 
792	 6,41244886591991E-02 
793	 6,39510258112823E-02 
794	 6,40292366828621E-02 
795	 6,42612804663188E-02 
796	 6,42661463665331E-02 
797	 6,42471030931576E-02 
798	 6,42917525413777E-02 
799	 6,45077939283466E-02 
800	 0,064682771571075 
801	 6,46324072097832E-02 
802	 0,064734511303761 
803	 6,49326304318274E-02 
804	 6,48677478669952E-02 
805	 6,49774969888882E-02 
806	 6,53147495241658E-02 
807	 0,065206448199409 
808	 6,51651959077473E-02 
809	 6,57378173318979E-02 
810	 0,065721057014295 
811	 6,53137001105113E-02 
812	 6,58159238712704E-02 
813	 6,61312017748475E-02 
814	 6,59219421154197E-02 
815	 6,60929172661681E-02 
816	 6,64652349953584E-02 
817	 6,67284546792676E-02 
818	 6,66527006885761E-02 
819	 6,64058906138264E-02 
820	 6,67100989310741E-02 
821	 6,67773466143094E-02 
822	 6,63727821048154E-02 
823	 6,65873468909391E-02 
824	 6,68835796315048E-02 
825	 6,64561357330998E-02 
826	 6,66256040004784E-02 
827	 6,73611924938454E-02 
828	 6,75947623247293E-02 
829	 6,74995714799848E-02 
830	 6,72191239941679E-02 
831	 6,71697573041136E-02 
832	 6,73049106975968E-02 
833	 6,74803893982626E-02 
834	 6,81618947529843E-02 
835	 0,068994676658697 
836	 6,84935400203348E-02 
837	 6,80859074942762E-02 
838	 6,84593803088104E-02 
839	 6,84431187738008E-02 
840	 6,83348268684761E-02 
841	 0,068723071161405 
842	 6,86330314879065E-02 
843	 6,81522048935453E-02 
844	 6,83784775754931E-02 
845	 6,87490506367927E-02 
846	 6,89295564494858E-02 
847	 6,89191285791741E-02 
848	 6,88139549080645E-02 
849	 6,87573270384055E-02 
850	 6,87215811891043E-02 
851	 0,068757156602104 
852	 6,91132943880247E-02 
853	 0,069030725643319 
854	 6,82634808738519E-02 
855	 6,81100249918508E-02 
856	 6,85098545039805E-02 
857	 6,91566414543843E-02 
858	 6,95046276512537E-02 
859	 6,93281390335335E-02 
860	 6,83374426999884E-02 
861	 6,80903109427783E-02 
862	 6,91577280106456E-02 
863	 6,92950419789928E-02 
864	 6,90967916635049E-02 
865	 6,96318808573264E-02 
866	 6,95635264817676E-02 
867	 0,069128282434156 
868	 7,01242077144778E-02 
869	 7,03795618035507E-02 
870	 6,91901321804399E-02 
871	 6,90654564563648E-02 
872	 6,95655437973967E-02 
873	 6,98632541344534E-02 
874	 6,99767519750601E-02 
875	 6,99051644725159E-02 
876	 6,96010211718782E-02 
877	 6,99728691230609E-02 
878	 7,11336873488456E-02 
879	 7,12765276049601E-02 
880	 7,11790674539557E-02 
881	 7,17904926712365E-02 
882	 7,20632155585347E-02 
883	 0,071889819980783 
884	 7,14469021089035E-02 
885	 7,14396531044999E-02 
886	 7,20016557579169E-02 
887	 7,22171939156112E-02 
888	 7,22614738926574E-02 
889	 7,23542260493391E-02 
890	 7,24790377764423E-02 
891	 7,25974166578358E-02 
892	 7,26258360635839E-02 
893	 7,25385951746814E-02 
894	 7,24771261446757E-02 
895	 7,32081401104089E-02 
896	 7,33429743472152E-02 
897	 7,19619957370747E-02 
898	 7,12893977481803E-02 
899	 7,13208220023857E-02 
900	 7,13629734833712E-02 
901	 7,17625948969386E-02 
902	 7,23160697041294E-02 
903	 7,20041925854476E-02 
904	 0,071968638098416 
905	 7,27480450407033E-02 
906	 0,072683636964551 
907	 7,22231121599615E-02 
908	 7,22852337849489E-02 
909	 7,18347625769257E-02 
910	 0,07129008254632 
911	 7,27878020494372E-02 
912	 7,38106286131912E-02 
913	 7,32665935496706E-02 
914	 7,24167334068696E-02 
915	 0,072214027129933 
916	 7,34571752104703E-02 
917	 0,073542594923378 
918	 0,072845586519727 
919	 7,37521052311291E-02 
920	 0,074643854834179 
921	 0,074829344852347 
922	 7,38957215621471E-02 
923	 0,072824975344797 
924	 7,25514315942595E-02 
925	 7,35339394102024E-02 
926	 7,47789488720351E-02 
927	 7,44269596182374E-02 
928	 7,38354456773808E-02 
929	 7,36036300861181E-02 
930	 7,45228351087091E-02 
931	 7,47889110052193E-02 
932	 7,36228578120701E-02 
933	 7,36772106819256E-02 
934	 7,39732160520192E-02 
935	 7,29655700646687E-02 
936	 7,39717805111287E-02 
937	 7,60911235570516E-02 
938	 7,46620973955544E-02 
939	 7,38255259393371E-02 
940	 7,47579017666771E-02 
941	 7,46820125828757E-02 
942	 7,48018659317875E-02 
943	 7,61050997292952E-02 
944	 7,62103591554368E-02 
945	 7,53315213438226E-02 
946	 7,45654461947799E-02 
947	 0,074810362333358 
948	 7,57126825592912E-02 
949	 7,48152806588297E-02 
950	 7,38927624992803E-02 
951	 7,40097175768695E-02 
952	 7,49440987323284E-02 
953	 7,53713441384236E-02 
954	 7,38719021272667E-02 
955	 0,07350968890782 
956	 7,43906650017788E-02 
957	 7,51076260219794E-02 
958	 7,51323880840974E-02 
959	 7,43221130910998E-02 
960	 7,31829810560629E-02 
961	 7,28120278553238E-02 
962	 7,39210677900778E-02 
963	 7,53896331381304E-02 
964	 7,60963480823404E-02 
965	 0,074718507001568 
966	 7,35258265028466E-02 
967	 7,30171261256854E-02 
968	 7,25093887375545E-02 
969	 0,072858536756399 
970	 0,074264931459922 
971	 7,61016756642318E-02 
972	 0,076425804844186 
973	 7,39359821053713E-02 
974	 7,34969779894965E-02 
975	 7,44927954705646E-02 
976	 7,42528783810641E-02 
977	 7,35270005731719E-02 
978	 7,32099913137978E-02 
979	 0,075861868443674 
980	 7,78772147348248E-02 
981	 7,77387906223504E-02 
982	 7,84180910778831E-02 
983	 7,82737562560312E-02 
984	 7,57317797709528E-02 
985	 7,46901474840376E-02 
986	 7,52725412106665E-02 
987	 7,62236911590529E-02 
988	 7,62983553379152E-02 
989	 0,075768505961544 
990	 7,75647568544422E-02 
991	 7,77141638200209E-02 
992	 0,075068946456273 
993	 7,60629722645669E-02 
994	 7,84287941963699E-02 
995	 7,90931712056815E-02 
996	 7,64151392424127E-02 
997	 7,36024836015405E-02 
998	 7,74559841675564E-02 
999	 7,98619758036857E-02 
1000	 7,95363884158219E-02 
1001	 8,10570294325834E-02 
1002	 8,09552458418994E-02 
1003	 7,83471765999935E-02 
1004	 7,84423987057887E-02 
1005	 7,93348194313811E-02 
1006	 7,90065279029853E-02 
1007	 8,12467126802278E-02 
1008	 8,39045597274494E-02 
1009	 8,22351458811671E-02 
1010	 8,11614843604982E-02 
1011	 8,08141670696775E-02 
1012	 0,076285289079443 
1013	 7,65031606855074E-02 
1014	 8,33896998448625E-02 
1015	 8,54454629414634E-02 
1016	 8,41241175969559E-02 
1017	 8,15141642854301E-02 
1018	 7,96772989347286E-02 
1019	 7,87469358521296E-02 
1020	 7,82574597235853E-02 
1021	 7,92202442774488E-02 
1022	 8,14159453103955E-02 
1023	 8,36821584919782E-02 
1024	 8,69323445811171E-02 
1025	 8,93991388832085E-02 
1026	 8,18080400364491E-02 
1027	 7,86078733264747E-02 
1028	 8,69551175371951E-02 
1029	 8,46742295417617E-02 
1030	 7,89657947137761E-02 
1031	 8,06819839497351E-02 
1032	 8,37610101183534E-02 
1033	 8,69026087620493E-02 
1034	 8,96103296078451E-02 
1035	 9,32240421254008E-02 
1036	 9,55375863765555E-02 
1037	 8,70303210844042E-02 
1038	 8,40445271384579E-02 
1039	 9,03066766570973E-02 
1040	 8,24028642527723E-02 
1041	 7,40802361816684E-02 
1042	 7,74497220663359E-02 
1043	 8,47938538359956E-02 
1044	 8,95847949581343E-02 
1045	 8,48150404990672E-02 
1046	 8,28251392465328E-02 
1047	 8,57947139778354E-02 
1048	 9,19512495860356E-02 
1049	 9,35296475537333E-02 
1050	 9,03679588302428E-02 
1051	 9,19252629486323E-02 
1052	 9,53581806149814E-02 
1053	 9,74490359893174E-02 
1054	 8,82778997712144E-02 
1055	 8,12533964705414E-02 
1056	 8,74568094899902E-02 
1057	 9,54976442775092E-02 
1058	 9,82519766014128E-02 
1059	 8,84431334362146E-02 
1060	 8,62654547492156E-02 
1061	 8,74655586024945E-02 
1062	 7,11821666741352E-02 
1063	 0,071277156067871 
1064	 8,93047239070599E-02 
1065	 9,18184559058201E-02 
1066	 9,26824330006712E-02 
1067	 9,37605364399967E-02 
1068	 7,03832194614999E-02 
1069	 0,060658499817579 
1070	 0,089785056018499 
1071	 0,102629129129508 
1072	 0,102556677253226 
1073	 0,100639429340949 
1074	 0,102235392486086 
1075	 0,101528288710438 
