Wavelength	SCORFF200366.asd
325	 0,631328258916909 
326	 0,511823980888482 
327	 0,323601231866727 
328	 0,165303389365021 
329	 0,22114729244684 
330	 0,318771229089271 
331	 0,339281540955181 
332	 0,332121418476765 
333	 0,327916731592889 
334	 0,385608427237904 
335	 0,398161272978533 
336	 0,346636742128545 
337	 0,323863319852491 
338	 0,319974103898915 
339	 0,333552401677362 
340	 0,286539855845097 
341	 0,231183983874785 
342	 0,269182849516693 
343	 0,322293563695996 
344	 0,344704738766472 
345	 0,311098746366279 
346	 0,266702772554039 
347	 0,259925144333528 
348	 0,295406557115868 
349	 0,330441659960915 
350	 0,266500390872203 
351	 0,212894053932077 
352	 0,220576803007991 
353	 0,23463897511634 
354	 0,237493657381507 
355	 0,212163783033733 
356	 0,228348154340204 
357	 0,267902930308072 
358	 0,244968083133607 
359	 0,229587156243472 
360	 0,244477316768298 
361	 0,222623520640673 
362	 0,200497469588972 
363	 0,240392145767316 
364	 0,255587232828685 
365	 0,242300096860298 
366	 0,252411467762484 
367	 0,263344279150335 
368	 0,260518913925478 
369	 0,241419826525528 
370	 0,220238368983612 
371	 0,225985301416698 
372	 0,234064107857185 
373	 0,236093462664657 
374	 0,227312322180474 
375	 0,226272162687971 
376	 0,243677114811515 
377	 0,243828946943049 
378	 0,228654211516825 
379	 0,210507177226588 
380	 0,214481396360439 
381	 0,241806686414438 
382	 0,246962447815067 
383	 0,237243563324259 
384	 0,223120627226251 
385	 0,213633029681385 
386	 0,213097130439532 
387	 0,226925693979779 
388	 0,236073504138057 
389	 0,232322523841046 
390	 0,220088715989925 
391	 0,212707777637049 
392	 0,225940691839057 
393	 0,227971570533871 
394	 0,218946683355343 
395	 0,222213436083888 
396	 0,220499743353053 
397	 0,208033269740715 
398	 0,208862333733833 
399	 0,215564636402578 
400	 0,213463061287207 
401	 0,212991909616864 
402	 0,214307426369485 
403	 0,207553961786387 
404	 0,205678734106406 
405	 0,215414449809174 
406	 0,21159180845584 
407	 0,203216403648029 
408	 0,216209634203425 
409	 0,225005944959891 
410	 0,222428575086655 
411	 0,213546433327015 
412	 0,204512994027186 
413	 0,200783676697695 
414	 0,204118827412172 
415	 0,210652077846006 
416	 0,210516831621731 
417	 0,212418141099547 
418	 0,217308578771444 
419	 0,209206701613502 
420	 0,199049387774117 
421	 0,202196982389369 
422	 0,206800298243343 
423	 0,208994972057771 
424	 0,205615439313758 
425	 0,204805019659198 
426	 0,21034853332836 
427	 0,209924627002639 
428	 0,206226696354829 
429	 0,206931591205187 
430	 0,208321149775774 
431	 0,209238844801848 
432	 0,209331749733077 
433	 0,208726640189885 
434	 0,207762557932569 
435	 0,209806580800376 
436	 0,212850869511587 
437	 0,210399324825336 
438	 0,207915699768085 
439	 0,20755431084355 
440	 0,207646577034887 
441	 0,207937660217797 
442	 0,208265863384044 
443	 0,209469308995375 
444	 0,211188963404666 
445	 0,211802975812861 
446	 0,211804550673906 
447	 0,211481713190384 
448	 0,210192535144506 
449	 0,209657824997358 
450	 0,213390834006072 
451	 0,214392071427826 
452	 0,211621443756928 
453	 0,211008579027083 
454	 0,21210101438405 
455	 0,214037935625267 
456	 0,213790994544832 
457	 0,211936560756174 
458	 0,211437687053777 
459	 0,212632225983618 
460	 0,215056574006074 
461	 0,21459416792092 
462	 0,212619712232218 
463	 0,211510409018514 
464	 0,209921301791593 
465	 0,208597361923081 
466	 0,210863526594796 
467	 0,213671287808544 
468	 0,214788102476066 
469	 0,214458837255153 
470	 0,213438006137008 
471	 0,212980051590207 
472	 0,213510657630507 
473	 0,215015044044613 
474	 0,21671112902213 
475	 0,21751761985254 
476	 0,216440814521874 
477	 0,213201128395111 
478	 0,209586136812162 
479	 0,210377018337657 
480	 0,211071113613609 
481	 0,209958653943565 
482	 0,210804925835178 
483	 0,213010741723364 
484	 0,215325681051924 
485	 0,214224012764427 
486	 0,21047913152895 
487	 0,210385443662802 
488	 0,212621023623596 
489	 0,215639999669315 
490	 0,215434923285619 
491	 0,21289342784706 
492	 0,21141717305516 
493	 0,21086588283933 
494	 0,211264108549564 
495	 0,21196349205008 
496	 0,212778873587941 
497	 0,213571918084099 
498	 0,213673638886346 
499	 0,213121304629481 
500	 0,212373814373177 
501	 0,212260447746351 
502	 0,213111842368803 
503	 0,213285021245459 
504	 0,213277362059254 
505	 0,214477302246016 
506	 0,2142984443244 
507	 0,212773221495954 
508	 0,21343548282097 
509	 0,214804113574872 
510	 0,215377139875991 
511	 0,215285015384546 
512	 0,214784991281424 
513	 0,214433061131655 
514	 0,214472877393641 
515	 0,214932624117546 
516	 0,215201782144955 
517	 0,214990611387947 
518	 0,213950743550871 
519	 0,214403532826315 
520	 0,216276370668594 
521	 0,217185310439851 
522	 0,216919969672764 
523	 0,215588237937527 
524	 0,215642889364703 
525	 0,216887017263871 
526	 0,218173083876786 
527	 0,218212658875793 
528	 0,216915328156841 
529	 0,216878777746072 
530	 0,217177396136604 
531	 0,216542231684169 
532	 0,216584136863201 
533	 0,217092997053529 
534	 0,21615243146395 
535	 0,215809044784354 
536	 0,216970977883082 
537	 0,216453574765975 
538	 0,215221521800944 
539	 0,21584285981912 
540	 0,216244286666141 
541	 0,215973294614179 
542	 0,215953255983528 
543	 0,216248756436437 
544	 0,216866456708224 
545	 0,217541159992052 
546	 0,218167088912693 
547	 0,218840743026558 
548	 0,218667082412132 
549	 0,217554050257426 
550	 0,218051107894726 
551	 0,219423511920865 
552	 0,220117963662857 
553	 0,220248927749127 
554	 0,219894942644153 
555	 0,219476559716064 
556	 0,219013863563167 
557	 0,218552093010166 
558	 0,218504799755657 
559	 0,218745994982093 
560	 0,218771563651967 
561	 0,218883451249507 
562	 0,219116255859111 
563	 0,219105320169513 
564	 0,218713542735912 
565	 0,217798089428948 
566	 0,218047368856646 
567	 0,219340812148098 
568	 0,219563682449676 
569	 0,219837051499409 
570	 0,22080940036644 
571	 0,220726712644429 
572	 0,220174899491716 
573	 0,220986935751515 
574	 0,221775695081198 
575	 0,222291711803714 
576	 0,223993844721184 
577	 0,225225791242157 
578	 0,224130842211773 
579	 0,224321200164602 
580	 0,225963114116924 
581	 0,226808547917718 
582	 0,227424842763536 
583	 0,228048581793977 
584	 0,228159115506576 
585	 0,228216992001418 
586	 0,229178261509677 
587	 0,229432264313677 
588	 0,228897707119008 
589	 0,229499528141796 
590	 0,230455892691763 
591	 0,230957355598433 
592	 0,231255445924114 
593	 0,231512272459347 
594	 0,232095877790403 
595	 0,2325622998815 
596	 0,232686286912257 
597	 0,232402820635213 
598	 0,232381896613152 
599	 0,233655103665566 
600	 0,23375669934403 
601	 0,232542161654073 
602	 0,232323740181592 
603	 0,232474677706199 
604	 0,232464153252802 
605	 0,232569260328891 
606	 0,232472207147413 
607	 0,231227170557107 
608	 0,230480674785405 
609	 0,230659230336249 
610	 0,230017664942292 
611	 0,229485079747047 
612	 0,230355817974208 
613	 0,230130625894251 
614	 0,22893140328195 
615	 0,229352820629528 
616	 0,229790547399806 
617	 0,229251687501205 
618	 0,22857279821065 
619	 0,228101776038657 
620	 0,22828228516868 
621	 0,22843374248869 
622	 0,228412036154526 
623	 0,228832661214101 
624	 0,22901417795121 
625	 0,228284727913264 
626	 0,228214721070842 
627	 0,22878746200902 
628	 0,228901063508559 
629	 0,22904799142536 
630	 0,229405125056224 
631	 0,229469501965614 
632	 0,229411941818186 
633	 0,229583808427388 
634	 0,22994436507094 
635	 0,230463222671028 
636	 0,231023904505336 
637	 0,231617661784932 
638	 0,232219960528673 
639	 0,232560222277738 
640	 0,232773173073967 
641	 0,23329605135407 
642	 0,233951645759873 
643	 0,234643904750086 
644	 0,235294676307001 
645	 0,235665894575099 
646	 0,235480422872473 
647	 0,235095879261587 
648	 0,234694487165997 
649	 0,234520977568773 
650	 0,234210206927632 
651	 0,233533288323336 
652	 0,232739143207209 
653	 0,232091895213122 
654	 0,232084135917062 
655	 0,23177983173178 
656	 0,23093485909935 
657	 0,230124869664868 
658	 0,229323854638833 
659	 0,228472141747659 
660	 0,227616796809919 
661	 0,226751463315029 
662	 0,225805196445677 
663	 0,224907330979286 
664	 0,224172550216423 
665	 0,223838942091643 
666	 0,223717143313806 
667	 0,223486251075594 
668	 0,223135237990027 
669	 0,222693179301978 
670	 0,222353073484793 
671	 0,2219547093597 
672	 0,221433206313133 
673	 0,221708654524804 
674	 0,222291895330201 
675	 0,221574600058784 
676	 0,221200159883473 
677	 0,221622806937173 
678	 0,221723167348197 
679	 0,221703982678173 
680	 0,221909074939311 
681	 0,22202420484611 
682	 0,22211886165607 
683	 0,222542688815888 
684	 0,223408418506788 
685	 0,224682897635016 
686	 0,225425976516563 
687	 0,226251005558026 
688	 0,228499141652588 
689	 0,230508396168035 
690	 0,232125570103469 
691	 0,234955582236944 
692	 0,238458333877869 
693	 0,242099576582247 
694	 0,246109087643492 
695	 0,250645698668278 
696	 0,256024872240642 
697	 0,261908510021139 
698	 0,268118235595204 
699	 0,274501394765414 
700	 0,281337142821327 
701	 0,289005762287752 
702	 0,296871574764976 
703	 0,304662750997168 
704	 0,312285135902944 
705	 0,319570935539338 
706	 0,326422291049684 
707	 0,333037563720797 
708	 0,339502047892144 
709	 0,345907277772542 
710	 0,351803469044823 
711	 0,357169001385105 
712	 0,362505585597938 
713	 0,367848130104584 
714	 0,373156237208256 
715	 0,377680965208921 
716	 0,38150961288723 
717	 0,385242924943212 
718	 0,388940380536855 
719	 0,392524739051664 
720	 0,395178249519541 
721	 0,397497343523838 
722	 0,400330424712546 
723	 0,403325687562084 
724	 0,406091164161903 
725	 0,407632416428523 
726	 0,409012926143841 
727	 0,410844755095796 
728	 0,412191025237134 
729	 0,413382541859933 
730	 0,415254524437649 
731	 0,416659975597814 
732	 0,417452820824238 
733	 0,418647709692304 
734	 0,419858480078502 
735	 0,420709157852821 
736	 0,421130259607661 
737	 0,421557237792636 
738	 0,423188385000544 
739	 0,42432680607753 
740	 0,424449826266775 
741	 0,424669530638425 
742	 0,425039365030588 
743	 0,425510966327374 
744	 0,425964288935934 
745	 0,426437945684425 
746	 0,427219098241053 
747	 0,427707722965119 
748	 0,427661369755073 
749	 0,427818852328467 
750	 0,428271371789536 
751	 0,429023114488902 
752	 0,429394858215352 
753	 0,429403335844389 
754	 0,429934159801928 
755	 0,430474048774494 
756	 0,430688886190952 
757	 0,431205754227222 
758	 0,431967194730419 
759	 0,432694576453625 
760	 0,433185770728845 
761	 0,433436424441048 
762	 0,43382640203875 
763	 0,434345409040614 
764	 0,434951322492809 
765	 0,435480223300373 
766	 0,435858860895552 
767	 0,43595213648279 
768	 0,436281314327528 
769	 0,436952769777937 
770	 0,437247100265856 
771	 0,437272168269469 
772	 0,437238483599558 
773	 0,437476436835669 
774	 0,437999076159728 
775	 0,438675186601889 
776	 0,43880090017203 
777	 0,438173767378131 
778	 0,438248233343763 
779	 0,438657574789379 
780	 0,438618334877376 
781	 0,438351870002821 
782	 0,438111473546602 
783	 0,438631094001127 
784	 0,439067085776888 
785	 0,4389049482848 
786	 0,438883691081834 
787	 0,439009625582838 
788	 0,439094504149497 
789	 0,439323821962892 
790	 0,439662235544866 
791	 0,439791757755132 
792	 0,439744535278196 
793	 0,439602250370817 
794	 0,439850567334367 
795	 0,440321895514318 
796	 0,440461066421712 
797	 0,440729800490047 
798	 0,44119020993084 
799	 0,441386444495716 
800	 0,441624733975557 
801	 0,44217438727356 
802	 0,442362812755296 
803	 0,442312285404244 
804	 0,442658363669878 
805	 0,443016457550286 
806	 0,443236165167463 
807	 0,443248770434996 
808	 0,443369057384086 
809	 0,443903297663069 
810	 0,44401513388062 
811	 0,44387269691675 
812	 0,444497661685583 
813	 0,444849283635697 
814	 0,444612819039244 
815	 0,444744100801193 
816	 0,44500717977439 
817	 0,445036385338341 
818	 0,445369950783383 
819	 0,44589650253217 
820	 0,445918554008229 
821	 0,445997415313395 
822	 0,44637819250354 
823	 0,446811705473739 
824	 0,447108182732671 
825	 0,447070260865089 
826	 0,447341526447706 
827	 0,447969348775629 
828	 0,448610190689123 
829	 0,449008683337026 
830	 0,449073594986927 
831	 0,449261616956312 
832	 0,449606974530627 
833	 0,450075963159424 
834	 0,450360644955424 
835	 0,450480110131822 
836	 0,450778685802394 
837	 0,451118398973816 
838	 0,451430399265362 
839	 0,451849540263092 
840	 0,452031905387179 
841	 0,451494375542451 
842	 0,451652796298875 
843	 0,45240388749788 
844	 0,452099116988096 
845	 0,451938241938157 
846	 0,452397054453881 
847	 0,451869827070221 
848	 0,451160097008291 
849	 0,45161768847436 
850	 0,451935557136673 
851	 0,4518161385779 
852	 0,451405677111711 
853	 0,451106347462502 
854	 0,451124526511232 
855	 0,451114602918912 
856	 0,451103446157467 
857	 0,451179570133236 
858	 0,451225375588191 
859	 0,451228877504524 
860	 0,451291970829178 
861	 0,451132511515042 
862	 0,450747476923371 
863	 0,451130496309373 
864	 0,451660860414554 
865	 0,451422582897481 
866	 0,451790358525997 
867	 0,452810259390085 
868	 0,453714097189667 
869	 0,454091794740159 
870	 0,453844315742541 
871	 0,453809008713544 
872	 0,454153649857842 
873	 0,45495133445007 
874	 0,456004045760184 
875	 0,456927935729934 
876	 0,456797273449198 
877	 0,456915824319497 
878	 0,4577353415462 
879	 0,458241978371836 
880	 0,458825588843996 
881	 0,459914641095466 
882	 0,460176072865517 
883	 0,459674240265743 
884	 0,459079599457336 
885	 0,45974377655765 
886	 0,461655169685724 
887	 0,461857521898964 
888	 0,4612327065857 
889	 0,460863981098443 
890	 0,461505368962784 
891	 0,462435236892984 
892	 0,461720589990233 
893	 0,461022452219629 
894	 0,460969566184222 
895	 0,461729666103079 
896	 0,462398101660148 
897	 0,462253297689725 
898	 0,461611907221539 
899	 0,461186400427753 
900	 0,462139711489316 
901	 0,462543307312341 
902	 0,462086548653713 
903	 0,461992574245824 
904	 0,461521689924681 
905	 0,460498100530036 
906	 0,461142192473218 
907	 0,462186800685245 
908	 0,461489265116733 
909	 0,460886870969344 
910	 0,460880456868187 
911	 0,461667653019472 
912	 0,461894514985918 
913	 0,461095620827385 
914	 0,460716549540501 
915	 0,461047515595974 
916	 0,462161885128018 
917	 0,462220998724758 
918	 0,461788098271097 
919	 0,463478060123131 
920	 0,464053124368025 
921	 0,462940643961186 
922	 0,463135369541254 
923	 0,463728451408228 
924	 0,463907443322071 
925	 0,46458295087935 
926	 0,46522899195762 
927	 0,46468660896248 
928	 0,464531654664397 
929	 0,465065410171819 
930	 0,465606254636201 
931	 0,46591400733196 
932	 0,465942634359441 
933	 0,46657783759644 
934	 0,467128536220411 
935	 0,466630781636149 
936	 0,466301622075564 
937	 0,466256988014522 
938	 0,465946960898714 
939	 0,465844002038674 
940	 0,466121086255412 
941	 0,466745783901825 
942	 0,467019970903925 
943	 0,466423742917756 
944	 0,4662510406739 
945	 0,466254054191427 
946	 0,465570366950632 
947	 0,464849661043913 
948	 0,464029001150198 
949	 0,461981360160073 
950	 0,46086632433713 
951	 0,46170543784334 
952	 0,462284844347867 
953	 0,462316969206376 
954	 0,461779688949442 
955	 0,460997524159412 
956	 0,460364873523998 
957	 0,460761628800148 
958	 0,460051820967226 
959	 0,45803478031987 
960	 0,457281126310873 
961	 0,457717296630925 
962	 0,458855947788515 
963	 0,457838131455018 
964	 0,45589522406022 
965	 0,455507655792892 
966	 0,455920875789599 
967	 0,456777181404441 
968	 0,457769717915927 
969	 0,456920508108803 
970	 0,45442374662858 
971	 0,456248851817671 
972	 0,458502540345029 
973	 0,457489182315715 
974	 0,456552725266352 
975	 0,456587556928639 
976	 0,458190406739558 
977	 0,458738770168474 
978	 0,457646467421523 
979	 0,455292759813596 
980	 0,455836113912394 
981	 0,460306900908128 
982	 0,461602771102806 
983	 0,460593934052144 
984	 0,459097158544992 
985	 0,460254018560863 
986	 0,462979814157281 
987	 0,463959295092121 
988	 0,463005735359873 
989	 0,461149781552597 
990	 0,46248650493375 
991	 0,46382403276831 
992	 0,463766854005167 
993	 0,464884606526689 
994	 0,465858343039295 
995	 0,465390028170011 
996	 0,467241527208765 
997	 0,4698368983626 
998	 0,468801916057173 
999	 0,468329852609164 
1000	 0,469407037881119 
1001	 0,4711805672911 
1002	 0,471905796539148 
1003	 0,470953895031708 
1004	 0,47048132315324 
1005	 0,470251675140605 
1006	 0,470018879506237 
1007	 0,471466415601081 
1008	 0,474065397000693 
1009	 0,476480875847007 
1010	 0,475152169481183 
1011	 0,471174516852052 
1012	 0,471072195295059 
1013	 0,473326533343448 
1014	 0,476540499069144 
1015	 0,477085452697429 
1016	 0,477197313207695 
1017	 0,478538980339779 
1018	 0,476753727561185 
1019	 0,473956339234483 
1020	 0,474090626542884 
1021	 0,475265527763356 
1022	 0,477690398013934 
1023	 0,483564704750323 
1024	 0,486619624570832 
1025	 0,485131687966679 
1026	 0,482641385231621 
1027	 0,481029109141621 
1028	 0,481289700399257 
1029	 0,480570435545724 
1030	 0,480744174703175 
1031	 0,483915209107507 
1032	 0,484153428775867 
1033	 0,482559209012488 
1034	 0,483642972729917 
1035	 0,486437484464135 
1036	 0,489899602047389 
1037	 0,491048398093612 
1038	 0,493241522841409 
1039	 0,495690623931736 
1040	 0,486048490004253 
1041	 0,478458384689372 
1042	 0,483819389903772 
1043	 0,484977916135486 
1044	 0,482761020289849 
1045	 0,481671835736533 
1046	 0,484134183665319 
1047	 0,490867255388897 
1048	 0,502123426048633 
1049	 0,500947621436581 
1050	 0,487503974440992 
1051	 0,48357792787768 
1052	 0,489704107469242 
1053	 0,502279768464529 
1054	 0,499490036411893 
1055	 0,496119650448724 
1056	 0,504322672757353 
1057	 0,504453861011401 
1058	 0,498943177603787 
1059	 0,495246203169578 
1060	 0,492814524395949 
1061	 0,492392452857084 
1062	 0,49508744342555 
1063	 0,499383764942495 
1064	 0,503397390910622 
1065	 0,503517310881636 
1066	 0,501013814162103 
1067	 0,496891476340028 
1068	 0,491177120192097 
1069	 0,491417190876543 
1070	 0,501572196969375 
1071	 0,506304023179697 
1072	 0,510318432977125 
1073	 0,519594012620905 
1074	 0,516883304080464 
1075	 0,505391435407173 
