Wavelength	SCORFF200189.asd
325	-1,69731714386937E-02 
326	-9,27810816305784E-02 
327	-9,37511995346544E-02 
328	-1,69878791482277E-02 
329	 8,11320021250956E-02 
330	 0,128671239619634 
331	 8,81626396270748E-02 
332	 1,28008992579256E-02 
333	-2,55044241079137E-02 
334	 5,98339469671613E-02 
335	 0,148466764720258 
336	 0,149752797293781 
337	 7,92213049307204E-02 
338	-5,84908781596613E-03 
339	-3,43890971472139E-03 
340	 3,13544021267824E-02 
341	 5,12956754392977E-02 
342	-1,92741909594138E-02 
343	 2,16371816112013E-02 
344	 0,158871654753365 
345	 0,123999591206395 
346	 4,28633229056268E-02 
347	 4,33629844122963E-02 
348	 3,33304157377075E-02 
349	 1,54160248304403E-02 
350	 3,09468413803373E-02 
351	 5,21900033848584E-02 
352	 5,77096057587502E-02 
353	 2,38666780864991E-02 
354	-9,97293050786102E-03 
355	 3,69711270862895E-03 
356	 4,85034628579642E-02 
357	 8,60074043228484E-02 
358	 4,87601267625649E-02 
359	 0,019920868661278 
360	 3,08926961115774E-02 
361	 3,61187091741262E-02 
362	 3,89787620152067E-02 
363	 5,17157084653689E-02 
364	 4,34630125868527E-02 
365	 0,019880072015659 
366	 2,43621304571332E-02 
367	 3,75468018841533E-02 
368	 4,41788838116484E-02 
369	 2,41450840425856E-02 
370	-1,55123279601702E-03 
371	 1,50180519968053E-02 
372	 1,03086243222869E-02 
373	-1,75232630640158E-02 
374	 1,89122141106788E-03 
375	 2,51399832722384E-02 
376	 2,21442903063778E-02 
377	 0,024860467927884 
378	 3,14422206796332E-02 
379	 2,79854244245145E-02 
380	 2,57637578340994E-02 
381	 2,93986987928378E-02 
382	 0,04284063445266 
383	 4,91157847903958E-02 
384	 3,51999559184401E-02 
385	 2,66748581275604E-02 
386	 2,78070412454404E-02 
387	 3,58890424543182E-02 
388	 0,043911700497004 
389	 4,57039573033243E-02 
390	 2,83821858393968E-02 
391	 1,49054205711124E-02 
392	 3,42710062430754E-02 
393	 3,08378247880278E-02 
394	 1,04175941078786E-02 
395	 3,10133110904667E-02 
396	 0,038234529689581 
397	 1,14657924317561E-02 
398	 4,96332642362361E-03 
399	 1,56508234307736E-02 
400	 3,02898040295112E-02 
401	 0,031878574307288 
402	 1,99710089667711E-02 
403	 0,010347422821696 
404	 1,49556042763863E-02 
405	 3,72929875094908E-02 
406	 3,53588361291596E-02 
407	 2,02752273848216E-02 
408	 2,66255883721695E-02 
409	 2,99864425716875E-02 
410	 2,62861683314827E-02 
411	 0,030764070939016 
412	 0,033269030343321 
413	 0,024549029227061 
414	 1,90638419050298E-02 
415	 1,83076509018553E-02 
416	 1,81609009959356E-02 
417	 2,05602279135567E-02 
418	 2,44033040423978E-02 
419	 1,92476132108202E-02 
420	 1,45204183416544E-02 
421	 2,31074076766885E-02 
422	 2,90873745550566E-02 
423	 2,90538121649679E-02 
424	 2,49804803741101E-02 
425	 2,18116625414002E-02 
426	 2,23455413104682E-02 
427	 2,32596386512252E-02 
428	 2,30008560208511E-02 
429	 1,94066822132726E-02 
430	 1,86400281126422E-02 
431	 2,13121418472199E-02 
432	 2,12618673583346E-02 
433	 2,09901116294836E-02 
434	 2,28307663871384E-02 
435	 2,48740611430583E-02 
436	 2,64687404138312E-02 
437	 2,70834851655517E-02 
438	 2,70615189441993E-02 
439	 0,026525646510164 
440	 2,54647943105596E-02 
441	 2,37905527763236E-02 
442	 2,13795786626889E-02 
443	 1,92666732951093E-02 
444	 1,87796151532004E-02 
445	 0,023566317344269 
446	 2,68548049313035E-02 
447	 2,46400061954011E-02 
448	 2,11587093583134E-02 
449	 1,96076878785886E-02 
450	 2,48241498376963E-02 
451	 2,78386554704338E-02 
452	 2,63877818461049E-02 
453	 2,46375962617874E-02 
454	 2,32786682124912E-02 
455	 2,28064336282761E-02 
456	 2,35314851030115E-02 
457	 2,45801734283222E-02 
458	 2,33410492464148E-02 
459	 2,35306662087351E-02 
460	 2,58926854582564E-02 
461	 0,024492558988257 
462	 0,022354208855267 
463	 2,41929198341786E-02 
464	 2,35190267089343E-02 
465	 2,05333067513429E-02 
466	 2,12913540124209E-02 
467	 2,42862934807041E-02 
468	 2,78666913848537E-02 
469	 2,77557764526613E-02 
470	 2,51143069969037E-02 
471	 2,32724788156712E-02 
472	 2,28993924004942E-02 
473	 2,41415391559893E-02 
474	 2,61100664886019E-02 
475	 0,026177234395673 
476	 2,21836849991403E-02 
477	 2,18100212786848E-02 
478	 0,024402543385946 
479	 2,36371730912432E-02 
480	 2,22428139676668E-02 
481	 2,17211751302728E-02 
482	 2,36397812558243E-02 
483	 2,56514694465373E-02 
484	 2,41199560476235E-02 
485	 2,34404129289448E-02 
486	 2,43069286919007E-02 
487	 2,45018462113005E-02 
488	 2,46485781810045E-02 
489	 2,51987004075694E-02 
490	 2,57160778435532E-02 
491	 2,58290301953362E-02 
492	 2,48996840281543E-02 
493	 2,34893512460436E-02 
494	 2,22148378320406E-02 
495	 2,28812183439638E-02 
496	 2,38524629389666E-02 
497	 0,023184929547702 
498	 2,36588931237803E-02 
499	 2,49986094278746E-02 
500	 2,44535261583221E-02 
501	 2,38729100352365E-02 
502	 2,41976756383876E-02 
503	 2,38060169109419E-02 
504	 2,36713012965939E-02 
505	 2,59248265593816E-02 
506	 2,72575410616396E-02 
507	 2,66922816628024E-02 
508	 2,46566524223745E-02 
509	 2,33947112526604E-02 
510	 2,47264816691494E-02 
511	 2,50387722205518E-02 
512	 2,45028627119549E-02 
513	 2,53225547522477E-02 
514	 2,70009549014014E-02 
515	 0,028747458929294 
516	 2,69449908483257E-02 
517	 2,45470087775321E-02 
518	 0,026116716544352 
519	 2,65449925061494E-02 
520	 2,55041640673114E-02 
521	 2,69029528701124E-02 
522	 2,79411191891085E-02 
523	 2,67866884765581E-02 
524	 2,69279833168493E-02 
525	 2,81104163517131E-02 
526	 2,86710398135032E-02 
527	 2,83595500001797E-02 
528	 2,73686720171496E-02 
529	 2,74813779085767E-02 
530	 2,81882826654525E-02 
531	 2,87340163942735E-02 
532	 2,76708505787724E-02 
533	 2,58084644695372E-02 
534	 2,66999906379725E-02 
535	 2,79129136080081E-02 
536	 2,79866108058524E-02 
537	 2,74384132250265E-02 
538	 2,70376953954489E-02 
539	 2,81471950943574E-02 
540	 2,85216970474269E-02 
541	 2,78353306176311E-02 
542	 2,80975282473889E-02 
543	 2,87238160234466E-02 
544	 2,90375103057013E-02 
545	 2,89745826649025E-02 
546	 0,02862998851281 
547	 0,028293661020205 
548	 2,81421853261042E-02 
549	 2,82636723787036E-02 
550	 2,84026853252437E-02 
551	 2,87275882236244E-02 
552	 2,95873390827374E-02 
553	 2,98934260103724E-02 
554	 2,94544140150935E-02 
555	 2,88098139416211E-02 
556	 2,86955676035426E-02 
557	 2,95800221223032E-02 
558	 2,94657348915326E-02 
559	 2,86278241515326E-02 
560	 2,87463256207156E-02 
561	 2,85560123312003E-02 
562	 2,78418783155368E-02 
563	 2,84003912270644E-02 
564	 2,91186950581312E-02 
565	 2,83361337202709E-02 
566	 2,85921192697468E-02 
567	 2,98162713985099E-02 
568	 2,92617669111503E-02 
569	 2,92251938802606E-02 
570	 3,10129133081099E-02 
571	 3,07143733579371E-02 
572	 2,91960238603298E-02 
573	 2,96319617065511E-02 
574	 3,02115247507302E-02 
575	 3,04397994744286E-02 
576	 3,09701351749733E-02 
577	 3,14009452585117E-02 
578	 3,12717919790622E-02 
579	 3,16500813917535E-02 
580	 3,24720391440635E-02 
581	 3,27743760092732E-02 
582	 3,28912870662646E-02 
583	 3,29680981544115E-02 
584	 3,25696957415557E-02 
585	 3,22760646312011E-02 
586	 3,32478891058761E-02 
587	 3,33045499890208E-02 
588	 3,23623670383875E-02 
589	 3,32750007958729E-02 
590	 3,43564771640732E-02 
591	 3,40006362370575E-02 
592	 3,42461759660443E-02 
593	 3,49533202830899E-02 
594	 3,46093404426748E-02 
595	 3,44363899895272E-02 
596	 3,48438067020865E-02 
597	 3,44858407595194E-02 
598	 3,40151458486038E-02 
599	 3,46055425236563E-02 
600	 3,50207365592626E-02 
601	 3,50088365198752E-02 
602	 3,50918591819982E-02 
603	 3,49862815803446E-02 
604	 3,45126084849281E-02 
605	 0,034303389915203 
606	 3,43526199087287E-02 
607	 3,44136678229268E-02 
608	 3,41892562507487E-02 
609	 3,36588694659576E-02 
610	 3,34363619822138E-02 
611	 3,36558291700955E-02 
612	 3,43992079153566E-02 
613	 0,03391111897964 
614	 3,25005220624277E-02 
615	 3,26562941941367E-02 
616	 0,03336881482634 
617	 3,38642821157014E-02 
618	 0,033303612811789 
619	 3,25152073121998E-02 
620	 3,34545894682552E-02 
621	 3,39504346936355E-02 
622	 3,34589194399937E-02 
623	 3,30767512542036E-02 
624	 3,27922222243239E-02 
625	 3,25484052523997E-02 
626	 3,28415658733011E-02 
627	 3,35108583189142E-02 
628	 3,38633839589461E-02 
629	 3,39450826536059E-02 
630	 3,38011543067807E-02 
631	 3,37428647720862E-02 
632	 3,36932244507554E-02 
633	 3,34271357199121E-02 
634	 0,033540989258153 
635	 3,41110097678172E-02 
636	 3,47085855453263E-02 
637	 3,50825137834764E-02 
638	 3,50730239535211E-02 
639	 0,035340250838382 
640	 3,58705196071162E-02 
641	 3,63389828414208E-02 
642	 0,036612322081108 
643	 3,66359578285784E-02 
644	 3,65382542606227E-02 
645	 0,036577484312292 
646	 3,70613857566536E-02 
647	 3,71185612241346E-02 
648	 3,66843541865291E-02 
649	 3,63157352196974E-02 
650	 3,62525095213287E-02 
651	 3,65563497346825E-02 
652	 0,036138876017307 
653	 3,54335956979627E-02 
654	 3,57279295500425E-02 
655	 3,55281972650555E-02 
656	 3,46117974698139E-02 
657	 3,45293042250756E-02 
658	 0,034354206661869 
659	 3,30950659878235E-02 
660	 3,24130485863453E-02 
661	 3,24116320336597E-02 
662	 3,23808859642132E-02 
663	 3,19112863977618E-02 
664	 3,09911822223546E-02 
665	 3,13603901414087E-02 
666	 3,20642059173168E-02 
667	 3,12906191264743E-02 
668	 3,10315064027323E-02 
669	 3,15412410463536E-02 
670	 3,15780143823838E-02 
671	 3,11704063453167E-02 
672	 3,04586751811747E-02 
673	 3,05574945529604E-02 
674	 3,12017773077092E-02 
675	 3,13238711746241E-02 
676	 3,11372218956177E-02 
677	 3,07631786866331E-02 
678	 3,05325851721105E-02 
679	 3,06809820275494E-02 
680	 3,14258455726074E-02 
681	 3,20555345929051E-02 
682	 3,23805936151507E-02 
683	 3,24610124818378E-02 
684	 3,25105889425409E-02 
685	 3,27035541876425E-02 
686	 3,32160819930165E-02 
687	 3,38907589676062E-02 
688	 3,43776530364084E-02 
689	 3,52952474795838E-02 
690	 0,036564801483956 
691	 3,69572552762571E-02 
692	 3,75274716711659E-02 
693	 3,92360348470372E-02 
694	 4,12801987430898E-02 
695	 4,34675810854001E-02 
696	 4,57428765901436E-02 
697	 4,80980040402658E-02 
698	 5,05929311636562E-02 
699	 5,35953280038821E-02 
700	 5,68407154332072E-02 
701	 5,99568953490044E-02 
702	 6,30752089393365E-02 
703	 6,62165374745333E-02 
704	 6,93943621638564E-02 
705	 7,26062261183829E-02 
706	 0,075820072180155 
707	 7,88011881105601E-02 
708	 8,16835400128575E-02 
709	 0,084792801977674 
710	 8,76166956374141E-02 
711	 9,00442194875267E-02 
712	 9,23558204724863E-02 
713	 9,45754858743112E-02 
714	 9,67136511647632E-02 
715	 9,87656030632912E-02 
716	 0,100691900686951 
717	 0,102403848713288 
718	 0,103998703505981 
719	 0,105479585614109 
720	 0,106573386663426 
721	 0,107583359676919 
722	 0,108918016289424 
723	 0,110322924911713 
724	 0,111570415649093 
725	 0,112128949449491 
726	 0,112682033685007 
727	 0,113621154219582 
728	 0,114367650080853 
729	 0,114927149148405 
730	 0,115434991974776 
731	 0,116102672202202 
732	 0,116881102339784 
733	 0,117259312432711 
734	 0,117493778321441 
735	 0,117811385138717 
736	 0,117820235264005 
737	 0,117925305076348 
738	 0,119400784796053 
739	 0,120323119826496 
740	 0,120105370562358 
741	 0,120102911933644 
742	 0,120209832608118 
743	 0,120184748937226 
744	 0,12060020576696 
745	 0,121305189101168 
746	 0,121473613044736 
747	 0,121510362001972 
748	 0,121625216144636 
749	 0,121688181147453 
750	 0,121787411000153 
751	 0,122068859353769 
752	 0,122370848603297 
753	 0,122607883240676 
754	 0,122634678349933 
755	 0,122784066499583 
756	 0,123246698244047 
757	 0,123331827541944 
758	 0,123304543122451 
759	 0,123960505179123 
760	 0,124303785583574 
761	 0,124173543354351 
762	 0,124469407130032 
763	 0,124841104871752 
764	 0,124929928926607 
765	 0,125045690260474 
766	 0,1251906247895 
767	 0,125164460372749 
768	 0,12543317698453 
769	 0,126051054956211 
770	 0,126185118438452 
771	 0,12611185650313 
772	 0,126241376169363 
773	 0,126502331456522 
774	 0,126800733179941 
775	 0,126920179916333 
776	 0,126810166039972 
777	 0,126547209531517 
778	 0,126874063719005 
779	 0,127297302868438 
780	 0,12697430571345 
781	 0,126904127973077 
782	 0,127213725803522 
783	 0,127312761986909 
784	 0,127596624210358 
785	 0,128212056283233 
786	 0,128100143162597 
787	 0,127722697949341 
788	 0,128166181129347 
789	 0,128555547589397 
790	 0,128654826562067 
791	 0,128639418603348 
792	 0,128606438963407 
793	 0,128636749487479 
794	 0,128689040239559 
795	 0,128820895383047 
796	 0,129194451163222 
797	 0,129377142347908 
798	 0,129268006329476 
799	 0,1291351540336 
800	 0,129261112119431 
801	 0,129845443697406 
802	 0,130116429574728 
803	 0,129986738817101 
804	 0,129536267035579 
805	 0,129654361918298 
806	 0,130483526560334 
807	 0,130671303019363 
808	 0,130630328562096 
809	 0,130894502010954 
810	 0,13101795776697 
811	 0,131086338980309 
812	 0,131633173494445 
813	 0,131819918150945 
814	 0,131446605105133 
815	 0,131619203698717 
816	 0,132060785453253 
817	 0,132320581637581 
818	 0,132276953321771 
819	 0,132068488941883 
820	 0,132225617438108 
821	 0,132371578347717 
822	 0,132359682093997 
823	 0,13242543453311 
824	 0,132628077673869 
825	 0,133007112682735 
826	 0,133265763572775 
827	 0,13338314417872 
828	 0,133588966594818 
829	 0,133637726613999 
830	 0,133470442762701 
831	 0,133572811406481 
832	 0,133777688633534 
833	 0,133784312850916 
834	 0,134247927244485 
835	 0,135011892165182 
836	 0,13509650582535 
837	 0,134949539112082 
838	 0,134854282708958 
839	 0,134985174098754 
840	 0,135138141708353 
841	 0,134995630476384 
842	 0,134848722088033 
843	 0,134781561488828 
844	 0,134735245710345 
845	 0,135091219848775 
846	 0,13584223364069 
847	 0,135417155071612 
848	 0,134664757873432 
849	 0,135012397729503 
850	 0,135134746554589 
851	 0,134877170537101 
852	 0,134842248968673 
853	 0,13480046295023 
854	 0,134690097275678 
855	 0,134901670335312 
856	 0,135277246093807 
857	 0,135545941881074 
858	 0,135604866679803 
859	 0,135471688399875 
860	 0,135316914310754 
861	 0,135126129402139 
862	 0,134984013348702 
863	 0,135392506534414 
864	 0,135935095919801 
865	 0,136017341250322 
866	 0,136293097681323 
867	 0,136669699551708 
868	 0,136444872680097 
869	 0,135979029710064 
870	 0,13557039252376 
871	 0,135779007121508 
872	 0,136370301425025 
873	 0,136978264148765 
874	 0,137470063268683 
875	 0,137765403641376 
876	 0,137799239473893 
877	 0,137781672488367 
878	 0,137828752353435 
879	 0,137924349830327 
880	 0,138146282847779 
881	 0,138548008050733 
882	 0,138628895539414 
883	 0,138450539124924 
884	 0,138389934638731 
885	 0,138712873646063 
886	 0,139373284304507 
887	 0,139532357153042 
888	 0,13947882149595 
889	 0,139563206285945 
890	 0,140176180032478 
891	 0,140681798948338 
892	 0,139479488175263 
893	 0,138813716198045 
894	 0,139250396576272 
895	 0,139748706051018 
896	 0,139660940273264 
897	 0,138675072651268 
898	 0,138615530793981 
899	 0,139334542486118 
900	 0,140066954556424 
901	 0,140115902112181 
902	 0,139469771186189 
903	 0,138977833349269 
904	 0,138987672196999 
905	 0,13956268227117 
906	 0,139418503342389 
907	 0,1390126053468 
908	 0,139220605126299 
909	 0,139333627466453 
910	 0,139388548327658 
911	 0,140114762180144 
912	 0,140362609269791 
913	 0,139831529454772 
914	 0,140254745234852 
915	 0,140936142217421 
916	 0,140956924183614 
917	 0,140899757309628 
918	 0,140982788835756 
919	 0,141492152627964 
920	 0,141937202351957 
921	 0,141951930437614 
922	 0,140763317058099 
923	 0,139797002478607 
924	 0,140240576473431 
925	 0,141229430364695 
926	 0,141976090774504 
927	 0,141362615156129 
928	 0,141255575609193 
929	 0,141690199253103 
930	 0,140526627651683 
931	 0,1400979694342 
932	 0,141414424829751 
933	 0,141294738276058 
934	 0,140425903356783 
935	 0,140164550169352 
936	 0,14106756818109 
937	 0,142434802114116 
938	 0,141887108536672 
939	 0,141545165576611 
940	 0,1420240552996 
941	 0,142060816785572 
942	 0,141783134157618 
943	 0,141434487210439 
944	 0,141731733315971 
945	 0,142292325933768 
946	 0,142206721425319 
947	 0,141685966875443 
948	 0,140909132905755 
949	 0,140358493133029 
950	 0,139492457566984 
951	 0,138355192412328 
952	 0,139197646918257 
953	 0,140568422676321 
954	 0,140507967169007 
955	 0,140744241033089 
956	 0,140993486607984 
957	 0,139619413566664 
958	 0,138417077621291 
959	 0,138073920627683 
960	 0,138402729575651 
961	 0,138992424914392 
962	 0,139456209429797 
963	 0,139593175200309 
964	 0,139218216958738 
965	 0,138136962838819 
966	 0,138152552263236 
967	 0,139169778349925 
968	 0,139505096030189 
969	 0,138794694657737 
970	 0,137489074046949 
971	 0,139155353022161 
972	 0,140440836108254 
973	 0,138481197624104 
974	 0,138724795947343 
975	 0,140005415284208 
976	 0,138620698649479 
977	 0,137546040341263 
978	 0,137544861203428 
979	 0,138280556427713 
980	 0,139030462902758 
981	 0,139545597997629 
982	 0,141006404006627 
983	 0,141878356408695 
984	 0,140780442273138 
985	 0,140963973863633 
986	 0,142300906976911 
987	 0,143341540886376 
988	 0,143733520471605 
989	 0,143446376168793 
990	 0,142981726811461 
991	 0,142585111528826 
992	 0,142455887187786 
993	 0,142655176108232 
994	 0,143343379592354 
995	 0,14452115556557 
996	 0,144154889379698 
997	 0,143234190427475 
998	 0,144456655403615 
999	 0,144549715328707 
1000	 0,14365449382189 
1001	 0,146042114696206 
1002	 0,146195459461158 
1003	 0,142451849234925 
1004	 0,142157318619821 
1005	 0,143856630624311 
1006	 0,145617698431311 
1007	 0,149623072010931 
1008	 0,152620706114643 
1009	 0,148611468891751 
1010	 0,145786424101566 
1011	 0,145580521557978 
1012	 0,144338917396427 
1013	 0,14540923975155 
1014	 0,148647065180212 
1015	 0,14610689263599 
1016	 0,142189538102391 
1017	 0,141505266644419 
1018	 0,146691583779449 
1019	 0,152085320817195 
1020	 0,149006643874927 
1021	 0,14614525189281 
1022	 0,146127900289028 
1023	 0,150363028729019 
1024	 0,151297680464212 
1025	 0,147820465167161 
1026	 0,148513587027183 
1027	 0,149088932337274 
1028	 0,147216472694358 
1029	 0,147968934465303 
1030	 0,150583167338855 
1031	 0,153290061322313 
1032	 0,152646061910917 
1033	 0,150872046584695 
1034	 0,153796545358726 
1035	 0,157689230774072 
1036	 0,159122720095863 
1037	 0,148949559094926 
1038	 0,147886052149556 
1039	 0,159629654405332 
1040	 0,149653746493088 
1041	 0,139638711631481 
1042	 0,147301324274234 
1043	 0,149981762303222 
1044	 0,1493533107365 
1045	 0,151606590475438 
1046	 0,151992085030405 
1047	 0,152466082465418 
1048	 0,159990086677466 
1049	 0,160600684987721 
1050	 0,154091324182076 
1051	 0,157308182484139 
1052	 0,159832467330898 
1053	 0,156585839164548 
1054	 0,149522966427808 
1055	 0,14725098467217 
1056	 0,155504413514929 
1057	 0,161819286862652 
1058	 0,15958332163601 
1059	 0,14333407362273 
1060	 0,14023790721072 
1061	 0,14938573197114 
1062	 0,154847376289857 
1063	 0,152992985949254 
1064	 0,14522446000828 
1065	 0,141500692823723 
1066	 0,150600047663808 
1067	 0,167667940763933 
1068	 0,146435637839913 
1069	 0,12992461601376 
1070	 0,149543036908202 
1071	 0,152089272504451 
1072	 0,147154889867118 
1073	 0,151693532176643 
1074	 0,157132344533958 
1075	 0,159449991713329 
