Wavelength	SCORFF200358.asd
325	 0,297243425266872 
326	 0,397739402256786 
327	 0,265627906564739 
328	-4,26622271675826E-02 
329	 4,17373952029855E-02 
330	 0,198788763368051 
331	 0,197786070589418 
332	 0,179630035587853 
333	 0,15465636831488 
334	 6,87432593253747E-02 
335	 2,88139810795078E-02 
336	 7,10527076647295E-02 
337	 0,094573867962016 
338	 0,112443811791712 
339	 0,122331469597814 
340	 9,04468944143529E-02 
341	 4,54117274575357E-02 
342	 0,011425706157254 
343	 8,79922339576375E-02 
344	 0,220507219472691 
345	 0,142751862281977 
346	 4,09449659533344E-02 
347	 0,102256563090594 
348	 0,124583627961319 
349	 0,102323485458099 
350	 0,110437218478949 
351	 0,108389484373237 
352	 0,08464737586297 
353	 5,80420697365954E-02 
354	 4,07289859387114E-02 
355	 4,77081193800516E-02 
356	 4,59692030698586E-02 
357	 3,68475898659805E-02 
358	 4,36200360303409E-02 
359	 6,26814749847002E-02 
360	 8,37804916176596E-02 
361	 2,70913462725329E-02 
362	-3,08804762898303E-02 
363	 3,24898143956541E-02 
364	 5,63820311865087E-02 
365	 3,30660454235008E-02 
366	 6,29184746688123E-02 
367	 7,57475655794143E-02 
368	 3,58940509555039E-02 
369	 1,23587850685865E-02 
370	 1,16228778417091E-02 
371	 3,10625357449692E-02 
372	 2,97824527874522E-02 
373	 9,63868258841543E-03 
374	 3,62440730767575E-02 
375	 0,048986164481143 
376	 1,04844767434995E-02 
377	 2,14287960185697E-02 
378	 5,94055097163907E-02 
379	 4,61510845502767E-02 
380	 3,18129136746325E-02 
381	 3,27833126300243E-02 
382	 5,01382593275653E-02 
383	 5,69699923162009E-02 
384	 3,25558171430469E-02 
385	 2,22902631383891E-02 
386	 3,04921340757072E-02 
387	 4,66575234721694E-02 
388	 5,27089998989052E-02 
389	 4,24907816346373E-02 
390	 2,94911357134636E-02 
391	 2,32615803797544E-02 
392	 3,43418920105104E-02 
393	 2,83586062147659E-02 
394	 1,13915150832816E-02 
395	 2,69744747835861E-02 
396	 3,64584650348839E-02 
397	 2,47103595460186E-02 
398	 2,76362249802793E-02 
399	 0,036802283065304 
400	 3,51246037790808E-02 
401	 2,08831141147042E-02 
402	 1,85683201070176E-03 
403	 3,85308512887484E-03 
404	 0,013499366986186 
405	 1,99749706971505E-02 
406	 1,76126118552003E-02 
407	 0,013141236831 
408	 2,23511092596993E-02 
409	 2,79246039586133E-02 
410	 2,66662321306774E-02 
411	 3,04427000109013E-02 
412	 2,98826235504859E-02 
413	 0,017126223982081 
414	 1,90420702274179E-02 
415	 3,05001243307225E-02 
416	 2,70197015295833E-02 
417	 2,10809723393661E-02 
418	 1,76671450544442E-02 
419	 0,013653735816 
420	 1,12513894434085E-02 
421	 1,34510115075514E-02 
422	 1,73392607569878E-02 
423	 2,12556476127213E-02 
424	 2,35755597993826E-02 
425	 2,32977700570487E-02 
426	 2,01970216575358E-02 
427	 1,72931224469274E-02 
428	 1,62300971730784E-02 
429	 1,90711673795766E-02 
430	 2,03097052182136E-02 
431	 1,90305310462268E-02 
432	 1,92443901407714E-02 
433	 2,02244479618446E-02 
434	 2,13144820581384E-02 
435	 2,55812844736533E-02 
436	 0,029978145782769 
437	 0,025696504503589 
438	 2,17621082351357E-02 
439	 2,15016441207307E-02 
440	 2,01860230275021E-02 
441	 1,93506562819208E-02 
442	 2,13817086795859E-02 
443	 1,86439416297236E-02 
444	 1,31047469660233E-02 
445	 1,77595928050336E-02 
446	 2,14811429081058E-02 
447	 1,81234464044655E-02 
448	 0,018119018070009 
449	 2,04829910066173E-02 
450	 2,08094661962253E-02 
451	 2,03704646698402E-02 
452	 1,97868827814999E-02 
453	 2,07691143381914E-02 
454	 2,07631076182881E-02 
455	 0,017563189995338 
456	 0,015269742369587 
457	 1,48443672192828E-02 
458	 1,63182964884352E-02 
459	 0,018504638073477 
460	 2,05999346688382E-02 
461	 2,20414461422065E-02 
462	 2,23363051897595E-02 
463	 2,09765726485107E-02 
464	 2,03437435002761E-02 
465	 2,01669319296854E-02 
466	 0,016464515554506 
467	 1,53044593184979E-02 
468	 2,00143225597947E-02 
469	 2,22685366747596E-02 
470	 2,13999722480961E-02 
471	 1,82575119354403E-02 
472	 1,74545547922846E-02 
473	 2,00807428241515E-02 
474	 2,27844754535695E-02 
475	 2,40082005234521E-02 
476	 2,25634349438727E-02 
477	 2,15503926058996E-02 
478	 2,12049604746018E-02 
479	 2,02785235828101E-02 
480	 0,018514066295891 
481	 1,63234098065918E-02 
482	 1,73366123745926E-02 
483	 1,95083302209851E-02 
484	 0,019334121141125 
485	 1,93954875820447E-02 
486	 1,98544406190144E-02 
487	 1,85458209611017E-02 
488	 1,83577119286795E-02 
489	 2,10240490736684E-02 
490	 2,03332746232437E-02 
491	 1,74367864476056E-02 
492	 1,70939730891252E-02 
493	 1,76489080176215E-02 
494	 1,83670829713593E-02 
495	 1,79157623521914E-02 
496	 1,74504130959063E-02 
497	 1,83622029754698E-02 
498	 1,91377129118534E-02 
499	 1,92078370600549E-02 
500	 1,76737994979561E-02 
501	 1,75798911653072E-02 
502	 2,01141267526929E-02 
503	 0,019804349469984 
504	 1,79828765884438E-02 
505	 1,80870846136788E-02 
506	 1,96432317125818E-02 
507	 0,021483168077332 
508	 1,90351255646089E-02 
509	 1,62493052189806E-02 
510	 1,67805999497911E-02 
511	 1,81667069837473E-02 
512	 1,92539571609469E-02 
513	 1,81875793312098E-02 
514	 1,79937436393134E-02 
515	 1,95488012387723E-02 
516	 1,92698881475697E-02 
517	 1,82886469348481E-02 
518	 1,86678723946337E-02 
519	 1,86180064810007E-02 
520	 1,82370699377466E-02 
521	 1,97364546511604E-02 
522	 2,03079922433669E-02 
523	 1,82214677637521E-02 
524	 1,78741425282682E-02 
525	 1,91567522318626E-02 
526	 2,04171718331908E-02 
527	 2,06423914354495E-02 
528	 1,96059647570657E-02 
529	 1,86667613820305E-02 
530	 1,84203625714454E-02 
531	 1,93621895857484E-02 
532	 0,018952536495915 
533	 1,76594855313231E-02 
534	 1,89655612401971E-02 
535	 2,01081774632621E-02 
536	 1,95614285533194E-02 
537	 1,90544102640048E-02 
538	 1,89233444806142E-02 
539	 1,93818261336906E-02 
540	 1,94203571471678E-02 
541	 1,89280571503124E-02 
542	 1,89792900737522E-02 
543	 1,94515466546066E-02 
544	 2,01250648031631E-02 
545	 0,020053636021435 
546	 1,94113713842186E-02 
547	 1,92672786387631E-02 
548	 1,91536328242651E-02 
549	 0,018899543905633 
550	 1,88132731444549E-02 
551	 1,88514326152069E-02 
552	 1,88771953809715E-02 
553	 1,93140284850524E-02 
554	 0,01999454006009 
555	 1,98605773296652E-02 
556	 1,94323346131908E-02 
557	 1,92079309663052E-02 
558	 1,96133596784786E-02 
559	 2,01125129388389E-02 
560	 0,019082415294508 
561	 1,83923913000557E-02 
562	 1,86998007353018E-02 
563	 1,90051942739108E-02 
564	 1,88954104530038E-02 
565	 1,79500354305841E-02 
566	 1,82584425183862E-02 
567	 0,019703321389979 
568	 1,98536516347728E-02 
569	 0,019805759440953 
570	 2,02646476564317E-02 
571	 2,02927311725237E-02 
572	 0,019896400113098 
573	 1,92890865871621E-02 
574	 1,91385532344605E-02 
575	 1,97161890456621E-02 
576	 2,10170165996258E-02 
577	 2,16438210257532E-02 
578	 2,01355043948093E-02 
579	 1,97632761772249E-02 
580	 2,07183854174587E-02 
581	 0,021034930939597 
582	 2,11312616837504E-02 
583	 2,12406954494318E-02 
584	 2,15711769570451E-02 
585	 2,18399785079653E-02 
586	 2,15240861338111E-02 
587	 2,08371474611872E-02 
588	 2,01581010607611E-02 
589	 2,06413953189724E-02 
590	 0,021625529089818 
591	 2,23959707117809E-02 
592	 2,24756912606428E-02 
593	 2,20223781967306E-02 
594	 2,16951051905898E-02 
595	 2,17731920172932E-02 
596	 2,22782972294396E-02 
597	 2,21532614247169E-02 
598	 2,18409721837349E-02 
599	 2,21855517693425E-02 
600	 2,22445476009029E-02 
601	 2,18991389249918E-02 
602	 2,17821526246241E-02 
603	 2,15122380061383E-02 
604	 2,09097126099225E-02 
605	 2,17531104122627E-02 
606	 2,30559428368696E-02 
607	 2,17019133655205E-02 
608	 0,020244473025163 
609	 1,97173233473942E-02 
610	 1,99522616938633E-02 
611	 2,04592120062212E-02 
612	 2,06475992720507E-02 
613	 0,020114970481543 
614	 1,92301769766794E-02 
615	 1,94938993122311E-02 
616	 2,02703928758224E-02 
617	 2,09759601709893E-02 
618	 2,02408979644252E-02 
619	 1,92129990976366E-02 
620	 2,06515037392555E-02 
621	 2,13216567160948E-02 
622	 2,05499399224573E-02 
623	 2,06483477683659E-02 
624	 2,08643741027062E-02 
625	 2,03319368694718E-02 
626	 0,020205296590089 
627	 2,05125928187909E-02 
628	 2,06642602223434E-02 
629	 2,05112440996679E-02 
630	 2,00681648744783E-02 
631	 2,01376359205307E-02 
632	 2,05369671047586E-02 
633	 0,020816613235799 
634	 0,020987329711166 
635	 2,10541264627152E-02 
636	 2,11041356106272E-02 
637	 2,12001970524608E-02 
638	 2,14014846626168E-02 
639	 2,18170354798112E-02 
640	 2,22629454169281E-02 
641	 2,22870347730743E-02 
642	 2,20203253224918E-02 
643	 2,16713988050928E-02 
644	 2,21386671029414E-02 
645	 2,27465400188683E-02 
646	 2,25214487655889E-02 
647	 2,23317955049332E-02 
648	 2,22746100056651E-02 
649	 2,18552820376318E-02 
650	 2,16185419483342E-02 
651	 2,18599270320036E-02 
652	 2,17317114645704E-02 
653	 2,13388689833313E-02 
654	 2,11493387241211E-02 
655	 2,10903719656819E-02 
656	 2,10542340710412E-02 
657	 2,05988678754863E-02 
658	 2,00264835444967E-02 
659	 1,96812054379904E-02 
660	 1,95434953722186E-02 
661	 1,95208064305058E-02 
662	 1,93599573395677E-02 
663	 0,019131658739319 
664	 1,89225029702053E-02 
665	 1,91026877520993E-02 
666	 1,93712021496597E-02 
667	 1,91876832734987E-02 
668	 1,92892136614771E-02 
669	 1,96386126102686E-02 
670	 1,92487413818957E-02 
671	 1,87904848633854E-02 
672	 1,88078066141689E-02 
673	 1,88697377147005E-02 
674	 1,88897224840369E-02 
675	 1,88661829445513E-02 
676	 1,86682158322428E-02 
677	 1,83745745658159E-02 
678	 1,86715732675293E-02 
679	 1,91654842851316E-02 
680	 1,93269188685569E-02 
681	 1,91470996983241E-02 
682	 1,89105898355209E-02 
683	 1,95651949004048E-02 
684	 2,01203820623002E-02 
685	 2,00288779838933E-02 
686	 1,99602156568306E-02 
687	 2,01548507198252E-02 
688	 2,08868264678184E-02 
689	 2,14537136972355E-02 
690	 2,17010233038082E-02 
691	 2,20113167255984E-02 
692	 2,25295920400486E-02 
693	 2,33787752757719E-02 
694	 2,45871176207475E-02 
695	 2,60484817548665E-02 
696	 2,74899548767362E-02 
697	 2,90882523627219E-02 
698	 3,09479894644022E-02 
699	 3,31836861731184E-02 
700	 3,57149667896689E-02 
701	 3,84202612008234E-02 
702	 4,18063190975296E-02 
703	 0,045790296379797 
704	 4,98046162205048E-02 
705	 5,35287992792632E-02 
706	 5,68779705297997E-02 
707	 6,10917615263067E-02 
708	 6,57493885313971E-02 
709	 0,069750844369468 
710	 7,34633488083221E-02 
711	 7,70640625080962E-02 
712	 8,09028918804594E-02 
713	 8,46385593895938E-02 
714	 8,79539878280986E-02 
715	 9,11700126247226E-02 
716	 9,44263187522983E-02 
717	 9,79500190683098E-02 
718	 0,101261327844868 
719	 0,104163081546434 
720	 0,106913580467556 
721	 0,10946066602431 
722	 0,111719282395868 
723	 0,113836810733663 
724	 0,115846591000704 
725	 0,117718594831885 
726	 0,119374356075459 
727	 0,120807533748352 
728	 0,122380130575226 
729	 0,123956854273195 
730	 0,12520054488097 
731	 0,12642525461083 
732	 0,127677607462496 
733	 0,128747704263962 
734	 0,129714073514736 
735	 0,13063502622488 
736	 0,131213694302731 
737	 0,131736596578721 
738	 0,133122906601922 
739	 0,134019066888674 
740	 0,13408378363963 
741	 0,134554713008841 
742	 0,135314853922437 
743	 0,136103611254195 
744	 0,13679394545975 
745	 0,13733142261182 
746	 0,137734396907615 
747	 0,137935231639428 
748	 0,137974861557992 
749	 0,138354903344053 
750	 0,138871479436269 
751	 0,139108111665816 
752	 0,139543714096106 
753	 0,140219426811397 
754	 0,140835823235837 
755	 0,14122538356408 
756	 0,141302068976542 
757	 0,141412384306017 
758	 0,141754514946159 
759	 0,142643198057892 
760	 0,143165151071485 
761	 0,143129674435989 
762	 0,143254373928918 
763	 0,143546175950786 
764	 0,143961409719344 
765	 0,144236405247664 
766	 0,144413660976813 
767	 0,144749311391884 
768	 0,145135319131188 
769	 0,145482446557379 
770	 0,145531985065252 
771	 0,145549238552464 
772	 0,145869006066686 
773	 0,146553677251166 
774	 0,147315589191714 
775	 0,147307116508453 
776	 0,147055681028679 
777	 0,146892816438083 
778	 0,147017397441616 
779	 0,147263594826515 
780	 0,147343479851442 
781	 0,147521362105807 
782	 0,14778139304302 
783	 0,147810835364129 
784	 0,147927897662783 
785	 0,148320261814383 
786	 0,148685043609038 
787	 0,148974056886696 
788	 0,14919064231384 
789	 0,149347582762015 
790	 0,149468637905053 
791	 0,149661417168354 
792	 0,149649772279108 
793	 0,14929323910156 
794	 0,149526289330035 
795	 0,150188931394832 
796	 0,150645829513537 
797	 0,150724022868861 
798	 0,150483432342503 
799	 0,150622106617418 
800	 0,150945273423061 
801	 0,151238345659417 
802	 0,151667821081456 
803	 0,152085453930563 
804	 0,152079176595604 
805	 0,151982734236229 
806	 0,151952403870112 
807	 0,152005515504155 
808	 0,152343166062219 
809	 0,153125212823494 
810	 0,153363481172283 
811	 0,153200534543085 
812	 0,153675031069386 
813	 0,154047151851365 
814	 0,154059074343816 
815	 0,154126634384119 
816	 0,154207616314902 
817	 0,154218141836358 
818	 0,154473406970633 
819	 0,154840536434178 
820	 0,154695859408144 
821	 0,154613641766248 
822	 0,154850790915436 
823	 0,155136368573058 
824	 0,155376869287441 
825	 0,155492787267611 
826	 0,155900861408518 
827	 0,156561340843713 
828	 0,157074422672281 
829	 0,15731920267939 
830	 0,157248100601454 
831	 0,157068167635638 
832	 0,156997805182444 
833	 0,157279165588392 
834	 0,157976025321021 
835	 0,158798184873101 
836	 0,158886434774968 
837	 0,158561999865761 
838	 0,158160782048857 
839	 0,158694174763528 
840	 0,159327121248751 
841	 0,158741145309214 
842	 0,15861030778693 
843	 0,159027501731759 
844	 0,158763161197935 
845	 0,158834734695636 
846	 0,159627513012258 
847	 0,15972694485204 
848	 0,159436289118805 
849	 0,159408913914763 
850	 0,159729269212526 
851	 0,160180649591242 
852	 0,159912117016178 
853	 0,159752732684326 
854	 0,160055315690637 
855	 0,159871275403471 
856	 0,159644420808466 
857	 0,160102295156621 
858	 0,160107725284598 
859	 0,159711146670116 
860	 0,160058960403613 
861	 0,160101297519762 
862	 0,159507996800064 
863	 0,159869283289435 
864	 0,160639433944558 
865	 0,160900842246291 
866	 0,161292739147309 
867	 0,161768160030225 
868	 0,161802425118689 
869	 0,161683930720492 
870	 0,161606048545082 
871	 0,161798465800104 
872	 0,162068740777142 
873	 0,16217617599489 
874	 0,162982201486883 
875	 0,164064961901804 
876	 0,163624772386964 
877	 0,163569063554911 
878	 0,16453970617864 
879	 0,165202249630709 
880	 0,165560971313935 
881	 0,165732711736618 
882	 0,165717483174237 
883	 0,165505312087585 
884	 0,16494780161013 
885	 0,164745225376106 
886	 0,165163043528387 
887	 0,165947937395516 
888	 0,166803267758211 
889	 0,167427658241684 
890	 0,167596487776808 
891	 0,167218678475645 
892	 0,166048896692526 
893	 0,166116657412789 
894	 0,167619689362057 
895	 0,168200443309316 
896	 0,167993250401505 
897	 0,167242015256514 
898	 0,166488460887407 
899	 0,166385386641955 
900	 0,167909896501002 
901	 0,168099893260451 
902	 0,166825824661646 
903	 0,167155836787608 
904	 0,167615045399629 
905	 0,167397385133517 
906	 0,167803599811117 
907	 0,168397395753365 
908	 0,16836580558086 
909	 0,168202031104116 
910	 0,16811689788873 
911	 0,168440131512039 
912	 0,168395173006442 
913	 0,167801485255542 
914	 0,167877770103832 
915	 0,1684987376007 
916	 0,169330247925629 
917	 0,169209996084193 
918	 0,168435350459494 
919	 0,168357837101961 
920	 0,16862656837216 
921	 0,16902772769921 
922	 0,169079732170468 
923	 0,168691967694027 
924	 0,167994507987838 
925	 0,168824221806415 
926	 0,170206148117227 
927	 0,169894120336567 
928	 0,169426510227866 
929	 0,169184523645664 
930	 0,16885129679298 
931	 0,168884982383004 
932	 0,169399527479484 
933	 0,169288184968291 
934	 0,168762981367892 
935	 0,16828887171225 
936	 0,168744236959298 
937	 0,169615796590565 
938	 0,168875588057501 
939	 0,168226845989007 
940	 0,16815373652311 
941	 0,167458865770981 
942	 0,167099151651194 
943	 0,167826836246706 
944	 0,167864812477836 
945	 0,167248004781339 
946	 0,166617682074531 
947	 0,166169013331717 
948	 0,165774239621994 
949	 0,164527038068075 
950	 0,163760916299972 
951	 0,164040570041931 
952	 0,163666768893907 
953	 0,162654216878116 
954	 0,161303078908849 
955	 0,160905579860402 
956	 0,161316894060715 
957	 0,161607007132635 
958	 0,16013922380036 
959	 0,157335974642113 
960	 0,157960460278513 
961	 0,159195037604136 
962	 0,15881893077389 
963	 0,158418647311288 
964	 0,158033457059457 
965	 0,157431494370698 
966	 0,157340599224463 
967	 0,157623136097813 
968	 0,157242941049535 
969	 0,156891664495895 
970	 0,157002963366568 
971	 0,158446385286658 
972	 0,158623275305493 
973	 0,155680083739217 
974	 0,156445444146112 
975	 0,158848198102897 
976	 0,15709698950477 
977	 0,156449086412993 
978	 0,157529281975856 
979	 0,157327927899386 
980	 0,157352807750016 
981	 0,1583553404463 
982	 0,160419381399367 
983	 0,161420616454472 
984	 0,159527116466663 
985	 0,158470475434384 
986	 0,159519664906767 
987	 0,163795606191269 
988	 0,163910570464098 
989	 0,160027586693606 
990	 0,16137113484889 
991	 0,162460668015052 
992	 0,160905737048066 
993	 0,16034259928681 
994	 0,161519788818818 
995	 0,164441881501228 
996	 0,163127560556472 
997	 0,160344531536591 
998	 0,163719351821752 
999	 0,164836832200514 
1000	 0,163355804834782 
1001	 0,167291823788836 
1002	 0,168733234257268 
1003	 0,164964082673742 
1004	 0,164808724684751 
1005	 0,166034904906664 
1006	 0,166054586264727 
1007	 0,168835338605149 
1008	 0,17256618366167 
1009	 0,173095760766086 
1010	 0,17215822980807 
1011	 0,170211476042558 
1012	 0,16635334009142 
1013	 0,167788689253136 
1014	 0,175244259159314 
1015	 0,175099950736285 
1016	 0,172000820355311 
1017	 0,170637994421637 
1018	 0,169871273833604 
1019	 0,169862585101183 
1020	 0,170837229761744 
1021	 0,169283989849241 
1022	 0,166992799784503 
1023	 0,171419895940314 
1024	 0,174273411594399 
1025	 0,173694059885346 
1026	 0,175516353791122 
1027	 0,176168264694363 
1028	 0,174097321336385 
1029	 0,17577202840609 
1030	 0,179527526315992 
1031	 0,182413939327294 
1032	 0,181723446072088 
1033	 0,18120524774783 
1034	 0,189672654325567 
1035	 0,19071671077017 
1036	 0,183449359388542 
1037	 0,181876788305133 
1038	 0,183744854697793 
1039	 0,186559040051312 
1040	 0,181875808697031 
1041	 0,178484961331732 
1042	 0,182695038421518 
1043	 0,179542239829926 
1044	 0,175247874643793 
1045	 0,180634805340579 
1046	 0,185101190571277 
1047	 0,189357021468786 
1048	 0,200910503484394 
1049	 0,199572351863072 
1050	 0,185452647206075 
1051	 0,185085738032081 
1052	 0,183670506729183 
1053	 0,176748610724969 
1054	 0,182395662763789 
1055	 0,19268566658793 
1056	 0,198683248686495 
1057	 0,196808291605908 
1058	 0,191266753645502 
1059	 0,189393930765858 
1060	 0,194285201307518 
1061	 0,200669732611809 
1062	 0,195344294484526 
1063	 0,191639038480409 
1064	 0,194104066314176 
1065	 0,205124158690402 
1066	 0,20404168351096 
1067	 0,185193197086258 
1068	 0,168746905043156 
1069	 0,1706563749133 
1070	 0,197179817794605 
1071	 0,209592092914509 
1072	 0,206446891670818 
1073	 0,19267554233544 
1074	 0,187386982680748 
1075	 0,188306020372461 
