Wavelength	SCORFF200761.asd
325	 0,44285197948762 
326	 0,487728092914506 
327	 0,420532490042017 
328	 0,280362294835968 
329	 0,348710041076542 
330	 0,409178068437563 
331	 0,303114830311483 
332	 0,173624876981702 
333	 0,103377988536486 
334	 0,123393859942728 
335	 0,186947615387008 
336	 0,222744456009483 
337	 0,17333838400719 
338	 6,71909878300579E-02 
339	-1,76134919626406E-02 
340	 0,109656885742312 
341	 0,274370030422864 
342	 0,142891648411118 
343	 7,09703484759002E-02 
344	 0,139788744663646 
345	 0,147671011991279 
346	 0,142740214433384 
347	 0,172183896619227 
348	 0,150111278408448 
349	 9,94431543855616E-02 
350	 9,79786323195473E-02 
351	 0,100396705404491 
352	 9,05197641601972E-02 
353	 8,32636955040583E-02 
354	 7,03156270639818E-02 
355	 4,10319930385155E-02 
356	 7,70619229358076E-02 
357	 0,14548644992345 
358	 0,131186382137006 
359	 9,51298435574166E-02 
360	 6,33566021160758E-02 
361	 4,37932328414068E-02 
362	 4,10409378290383E-02 
363	 5,63892032593934E-02 
364	 7,22158194980858E-02 
365	 8,20499934318143E-02 
366	 7,54443773927092E-02 
367	 7,52995475430753E-02 
368	 8,89749700223181E-02 
369	 5,30230926451298E-02 
370	-7,18259022806016E-04 
371	 5,88195279018616E-03 
372	 2,89225334067528E-02 
373	 5,01477865559616E-02 
374	 4,83181756455916E-02 
375	 4,00002371438396E-02 
376	 3,88960190233805E-02 
377	 5,33492347269786E-02 
378	 6,99127024523609E-02 
379	 6,14097850405293E-02 
380	 4,15307413812847E-02 
381	 0,022221272272821 
382	 0,03647078651776 
383	 0,064205409194111 
384	 8,47988816568628E-02 
385	 5,97001881061315E-02 
386	 1,70163671013789E-02 
387	 4,71416789621178E-02 
388	 6,77226067165219E-02 
389	 5,07824620922199E-02 
390	 3,83341207470914E-02 
391	 3,24186359818346E-02 
392	 3,27561623109122E-02 
393	 2,15484413893345E-02 
394	 6,42167475347536E-03 
395	 2,49190637600061E-02 
396	 3,67235843294424E-02 
397	 2,66928379652776E-02 
398	 3,71617242106868E-02 
399	 5,42961865522446E-02 
400	 5,29334202298116E-02 
401	 4,02602867328597E-02 
402	 2,42378670608822E-02 
403	 2,14480803302398E-02 
404	 3,21507548564075E-02 
405	 5,21395150633396E-02 
406	 4,78171545689571E-02 
407	 3,10371159295059E-02 
408	 3,45352897890758E-02 
409	 4,22114861491356E-02 
410	 4,78875731242594E-02 
411	 4,77777908679058E-02 
412	 0,039570071321087 
413	 2,26840461067434E-02 
414	 2,28684091755734E-02 
415	 0,035118853899819 
416	 3,57653191027272E-02 
417	 3,30287040421451E-02 
418	 3,01942796367907E-02 
419	 2,68242197996935E-02 
420	 2,59164666405141E-02 
421	 3,10936757464735E-02 
422	 3,59381600892776E-02 
423	 3,80089109259803E-02 
424	 3,53054248459361E-02 
425	 3,31217132171147E-02 
426	 3,42138849557769E-02 
427	 3,30534344166671E-02 
428	 3,03999451216049E-02 
429	 2,85424697999083E-02 
430	 0,029584611588185 
431	 3,29326496723238E-02 
432	 3,32142256262545E-02 
433	 3,21661267031241E-02 
434	 3,16903874119192E-02 
435	 3,40175008801784E-02 
436	 3,73361518093113E-02 
437	 3,65588090800007E-02 
438	 3,34536039457176E-02 
439	 2,95650117587603E-02 
440	 2,94992774417266E-02 
441	 3,05757952602015E-02 
442	 2,89020661496716E-02 
443	 2,82148078356609E-02 
444	 2,93526139463948E-02 
445	 3,25064141993383E-02 
446	 3,39207557807127E-02 
447	 3,16159063887037E-02 
448	 3,01327667385969E-02 
449	 3,02049097154657E-02 
450	 3,18510510231456E-02 
451	 3,38058827463123E-02 
452	 3,53003938460321E-02 
453	 3,56278980413388E-02 
454	 3,48028669990294E-02 
455	 3,29194162345059E-02 
456	 2,99133612115786E-02 
457	 2,77786963067918E-02 
458	 3,17988770473019E-02 
459	 3,43481323462606E-02 
460	 3,26925126318496E-02 
461	 3,23591163460798E-02 
462	 3,26984222195208E-02 
463	 3,21588970845712E-02 
464	 3,15108854685897E-02 
465	 3,06784199159994E-02 
466	 2,83810879730878E-02 
467	 2,79030635808713E-02 
468	 3,08730012284824E-02 
469	 3,08656435622816E-02 
470	 2,96213412777133E-02 
471	 3,28029032004351E-02 
472	 3,33948931034899E-02 
473	 3,02767158003737E-02 
474	 2,92382975639017E-02 
475	 2,99352765311551E-02 
476	 3,15689125789099E-02 
477	 3,11241514042651E-02 
478	 2,94711564490913E-02 
479	 3,10581207753568E-02 
480	 3,18226988569095E-02 
481	 3,04804680373957E-02 
482	 3,21908965692804E-02 
483	 3,45002906849627E-02 
484	 3,31112656573256E-02 
485	 3,16490739954496E-02 
486	 0,031007270228359 
487	 3,02943261913603E-02 
488	 3,06575806724683E-02 
489	 3,26858243566108E-02 
490	 3,32664722312269E-02 
491	 3,22418840193183E-02 
492	 3,02865956760388E-02 
493	 2,92228876542319E-02 
494	 0,02941755905867 
495	 2,82429783350796E-02 
496	 2,73775133818886E-02 
497	 2,88662369518188E-02 
498	 3,08106166621091E-02 
499	 3,22195032728322E-02 
500	 3,16621885115211E-02 
501	 3,09691930196056E-02 
502	 3,11589774973919E-02 
503	 3,10956086136462E-02 
504	 3,11756486845437E-02 
505	 3,23746317356733E-02 
506	 3,31522554571565E-02 
507	 3,29543955071663E-02 
508	 3,15413202582758E-02 
509	 3,06190495937578E-02 
510	 0,031613529720141 
511	 3,22583462008876E-02 
512	 0,032212907039605 
513	 3,17437257878921E-02 
514	 3,16294322541635E-02 
515	 3,20476544496618E-02 
516	 3,15566475775761E-02 
517	 3,08948638485198E-02 
518	 3,12869251314121E-02 
519	 3,12080477842266E-02 
520	 0,0306983693943 
521	 0,031398554623559 
522	 0,032031359722271 
523	 0,031764489122766 
524	 3,22857917895912E-02 
525	 3,32523632123167E-02 
526	 3,34890522437902E-02 
527	 3,27088898894977E-02 
528	 3,12693431118209E-02 
529	 3,16100028777452E-02 
530	 3,27538773786339E-02 
531	 3,33677824344128E-02 
532	 0,033016575490969 
533	 3,20895618690905E-02 
534	 3,21626817713312E-02 
535	 3,25067610914539E-02 
536	 0,032629984575086 
537	 3,21684516789968E-02 
538	 0,031578737491462 
539	 3,17317328165353E-02 
540	 3,23604143556875E-02 
541	 3,31776639495949E-02 
542	 3,33276590618116E-02 
543	 0,033274363112395 
544	 3,34951522829473E-02 
545	 3,33702323312121E-02 
546	 3,30111988268968E-02 
547	 3,30469845333293E-02 
548	 3,30261993808317E-02 
549	 3,28689487772236E-02 
550	 3,36173326864308E-02 
551	 3,45025784607706E-02 
552	 3,41780365952066E-02 
553	 3,39457741399527E-02 
554	 3,40365691405737E-02 
555	 3,37288303464765E-02 
556	 3,36426266033699E-02 
557	 3,42154120840657E-02 
558	 0,034081886109876 
559	 3,34153991710724E-02 
560	 3,32206978194439E-02 
561	 3,32895139967532E-02 
562	 3,35308536462664E-02 
563	 3,37879595405531E-02 
564	 3,37477300641125E-02 
565	 3,30253308630056E-02 
566	 0,0334674185714 
567	 0,034813385087869 
568	 3,43181159315788E-02 
569	 3,39473442319346E-02 
570	 3,49389220096318E-02 
571	 3,50892576877576E-02 
572	 3,46550079098336E-02 
573	 0,034921285171635 
574	 0,035232296952888 
575	 3,54793105415968E-02 
576	 0,036292588662904 
577	 3,68121667949545E-02 
578	 3,60775398482309E-02 
579	 3,55377454256925E-02 
580	 3,55370489568611E-02 
581	 3,59720041331318E-02 
582	 3,63532272811046E-02 
583	 3,63937464706684E-02 
584	 3,63209403631667E-02 
585	 3,64828949992245E-02 
586	 3,75002393241618E-02 
587	 3,76856098070422E-02 
588	 3,70350598756848E-02 
589	 3,81242813537501E-02 
590	 3,91442004033765E-02 
591	 3,83987714337021E-02 
592	 3,81173209090727E-02 
593	 3,83723434451249E-02 
594	 3,81243385257548E-02 
595	 0,037743780718777 
596	 3,74610193189684E-02 
597	 3,76052591136519E-02 
598	 3,81181861026601E-02 
599	 3,88980265296073E-02 
600	 3,87009631896872E-02 
601	 3,76652839000753E-02 
602	 0,037788535422914 
603	 3,82105580763077E-02 
604	 3,82493058607532E-02 
605	 3,86315972872159E-02 
606	 3,90580495768648E-02 
607	 3,85718049383476E-02 
608	 3,79015423308724E-02 
609	 3,73556201614324E-02 
610	 3,68689079325447E-02 
611	 3,66764862406918E-02 
612	 3,70479344148385E-02 
613	 3,71163181749749E-02 
614	 3,68757131790015E-02 
615	 3,71752612981036E-02 
616	 3,72811141352721E-02 
617	 3,67657533950361E-02 
618	 3,61324293306179E-02 
619	 3,59620347640336E-02 
620	 0,037339396172202 
621	 3,79093270061505E-02 
622	 3,71603739328532E-02 
623	 3,68639762646002E-02 
624	 3,69007046889098E-02 
625	 3,70218936332552E-02 
626	 3,67391348208429E-02 
627	 3,63352175562691E-02 
628	 3,70260566396125E-02 
629	 3,74852239376804E-02 
630	 3,71273229581929E-02 
631	 3,70766143770435E-02 
632	 3,73207484696617E-02 
633	 3,76192669688908E-02 
634	 3,78778653801961E-02 
635	 3,81015848414816E-02 
636	 3,85781133183443E-02 
637	 3,87321400155778E-02 
638	 3,81915499491074E-02 
639	 3,88448398671352E-02 
640	 4,01678107089958E-02 
641	 3,99923184271256E-02 
642	 3,95276014300095E-02 
643	 3,93046270822292E-02 
644	 3,95048360556007E-02 
645	 3,98386940113728E-02 
646	 0,03990174812972 
647	 3,97631393223515E-02 
648	 3,95842124171093E-02 
649	 0,039909813337579 
650	 4,00762119348985E-02 
651	 3,96889917655504E-02 
652	 3,94844972883593E-02 
653	 3,94880452065512E-02 
654	 3,95601757455943E-02 
655	 3,93076538535504E-02 
656	 3,86968079630725E-02 
657	 3,83681614268163E-02 
658	 3,79830970043336E-02 
659	 3,71796687329285E-02 
660	 3,67653773653541E-02 
661	 3,66802361630782E-02 
662	 3,62532638188171E-02 
663	 3,56534406339839E-02 
664	 3,50864884915658E-02 
665	 3,54451465813741E-02 
666	 3,59608073121377E-02 
667	 3,52757006961793E-02 
668	 3,49545037889552E-02 
669	 3,52855287341313E-02 
670	 3,55873870194839E-02 
671	 3,56315854736895E-02 
672	 3,52861332554032E-02 
673	 3,50942391914813E-02 
674	 3,51882578880211E-02 
675	 3,57369406547519E-02 
676	 3,57606585269675E-02 
677	 3,50338121682117E-02 
678	 3,45258861517059E-02 
679	 3,46752986801305E-02 
680	 3,58612084460734E-02 
681	 3,65353605975262E-02 
682	 3,64412149080922E-02 
683	 3,60980262543618E-02 
684	 3,59176766236348E-02 
685	 3,61722173382052E-02 
686	 3,66884554845947E-02 
687	 3,72730259207875E-02 
688	 0,03760782662828 
689	 3,83389629240564E-02 
690	 3,95158415872399E-02 
691	 4,04599814086433E-02 
692	 4,13050426691041E-02 
693	 4,22115265489539E-02 
694	 4,32866093648269E-02 
695	 4,46785279045521E-02 
696	 4,66747663704532E-02 
697	 4,88788462644173E-02 
698	 5,10742392266046E-02 
699	 0,053122510815278 
700	 5,52974200473939E-02 
701	 5,79672587314987E-02 
702	 6,05259777728595E-02 
703	 6,27768321040739E-02 
704	 6,45739349773086E-02 
705	 6,67535205685307E-02 
706	 6,96896363861393E-02 
707	 7,17032766513656E-02 
708	 7,31189425318691E-02 
709	 7,49702168377176E-02 
710	 7,69533346762553E-02 
711	 7,88988728313289E-02 
712	 8,03946925083315E-02 
713	 0,081682795296723 
714	 8,29906528844653E-02 
715	 8,39276869782917E-02 
716	 8,46856807140156E-02 
717	 8,59543159715727E-02 
718	 8,70453242005515E-02 
719	 8,77334126656925E-02 
720	 8,84849714226481E-02 
721	 8,94333743455969E-02 
722	 9,06890028059077E-02 
723	 9,13465188176553E-02 
724	 9,14733408165063E-02 
725	 9,21216494743378E-02 
726	 0,09269387969362 
727	 9,28797405112956E-02 
728	 9,33137697929901E-02 
729	 9,38787670615819E-02 
730	 9,42190463211678E-02 
731	 9,44575484994296E-02 
732	 9,46842464043225E-02 
733	 9,51387223946223E-02 
734	 9,55990084457129E-02 
735	 9,58493564600588E-02 
736	 9,57419510735738E-02 
737	 9,55751307390098E-02 
738	 9,61645267672428E-02 
739	 9,66699309815191E-02 
740	 0,096775851359475 
741	 9,66964893628339E-02 
742	 9,66246800641336E-02 
743	 9,67587751635629E-02 
744	 9,68110168921215E-02 
745	 9,68484641612704E-02 
746	 9,73586086793325E-02 
747	 9,74814261247512E-02 
748	 9,69272440738066E-02 
749	 0,097147619426315 
750	 9,78841424786696E-02 
751	 9,84875686325278E-02 
752	 9,86515884834745E-02 
753	 9,84524764799942E-02 
754	 9,86046466172122E-02 
755	 9,89148939955776E-02 
756	 0,09919740991244 
757	 9,91083864433671E-02 
758	 9,89528620232971E-02 
759	 9,95040147809561E-02 
760	 9,97090306116183E-02 
761	 9,93866461248767E-02 
762	 9,93962048908664E-02 
763	 9,96797267551986E-02 
764	 0,100119283312309 
765	 0,100440974789288 
766	 0,100550024027184 
767	 0,100330426832237 
768	 0,100350762231321 
769	 0,100750881355754 
770	 0,100779835004178 
771	 0,100787371128474 
772	 0,101243935680139 
773	 0,101556028864372 
774	 0,101652818739678 
775	 0,1017599884234 
776	 0,101861077802154 
777	 0,101942989989912 
778	 0,101913391444222 
779	 0,101893026058909 
780	 0,102067872077641 
781	 0,102251468023878 
782	 0,102357924348121 
783	 0,102264184991216 
784	 0,102262845163998 
785	 0,102508495259825 
786	 0,102510214719646 
787	 0,102494122005128 
788	 0,103012484658922 
789	 0,103125109240895 
790	 0,102796634374423 
791	 0,103165352190047 
792	 0,103507507805942 
793	 0,1032835569044 
794	 0,103431825330594 
795	 0,1038409532266 
796	 0,103950529040895 
797	 0,103965262899564 
798	 0,104011281203935 
799	 0,104425163637174 
800	 0,104713046222188 
801	 0,104450337128616 
802	 0,104604280002158 
803	 0,105038057960807 
804	 0,104929461282027 
805	 0,104772877936526 
806	 0,104767979667855 
807	 0,104945830259699 
808	 0,105285482878493 
809	 0,105728129591126 
810	 0,105661482801713 
811	 0,105304440387181 
812	 0,105655220904581 
813	 0,105901406103886 
814	 0,105784255063592 
815	 0,105907330608532 
816	 0,106194545353414 
817	 0,10648467732171 
818	 0,106398332045895 
819	 0,106130396281412 
820	 0,106620718648221 
821	 0,106651809042379 
822	 0,105911987981069 
823	 0,106444401469917 
824	 0,10712795239627 
825	 0,106308459176099 
826	 0,106394531167176 
827	 0,107331256868722 
828	 0,107081022516311 
829	 0,106684397450961 
830	 0,106652631675873 
831	 0,106618204874871 
832	 0,106601670448108 
833	 0,106669081712494 
834	 0,107111491630334 
835	 0,107803878528696 
836	 0,10823591008145 
837	 0,108085907494276 
838	 0,107363762787909 
839	 0,107489496490807 
840	 0,107960490849295 
841	 0,107836252716185 
842	 0,107872731142007 
843	 0,108104128930307 
844	 0,108032396903135 
845	 0,107999872946506 
846	 0,108148986253522 
847	 0,108069967476111 
848	 0,107927612625691 
849	 0,108010401384596 
850	 0,108270688019533 
851	 0,108508128041556 
852	 0,108129734169592 
853	 0,1076799307098 
854	 0,107514971252083 
855	 0,107798364358944 
856	 0,108181618222536 
857	 0,108170992925364 
858	 0,108261804408775 
859	 0,108394730762505 
860	 0,107994558265497 
861	 0,10760351548383 
862	 0,107509556812329 
863	 0,107527914204463 
864	 0,107572198443008 
865	 0,107558555000591 
866	 0,108053912113827 
867	 0,10883577272522 
868	 0,108952405103718 
869	 0,108421108871438 
870	 0,107492423933222 
871	 0,107618596516127 
872	 0,108205587514817 
873	 0,108370714354219 
874	 0,108704875259166 
875	 0,109033108552843 
876	 0,108445948357118 
877	 0,10841735480994 
878	 0,109352481228487 
879	 0,109638929294905 
880	 0,109626800558403 
881	 0,10980805581931 
882	 0,109580467309329 
883	 0,10909009527521 
884	 0,108893038386716 
885	 0,109258475714968 
886	 0,110146215916284 
887	 0,110799433592257 
888	 0,110916565933725 
889	 0,110342333224027 
890	 0,110106534950881 
891	 0,110170076891332 
892	 0,109956598996051 
893	 0,109919171358672 
894	 0,110095405482036 
895	 0,110040870674472 
896	 0,109868424268603 
897	 0,109686384350182 
898	 0,109476830696779 
899	 0,109437852053999 
900	 0,109939669553823 
901	 0,109757811383795 
902	 0,108975728005579 
903	 0,109304461545528 
904	 0,109832324328188 
905	 0,109919169746503 
906	 0,109416062916376 
907	 0,108807406525306 
908	 0,108801233285298 
909	 0,108701285508001 
910	 0,10875118565213 
911	 0,110391267456474 
912	 0,111201320973915 
913	 0,110314005528134 
914	 0,110192812382048 
915	 0,110253217547872 
916	 0,109666426491492 
917	 0,109634824914347 
918	 0,110116783008018 
919	 0,110498388155654 
920	 0,110245321465811 
921	 0,10937800066632 
922	 0,109051979091772 
923	 0,109022095433316 
924	 0,109070512365013 
925	 0,109659318155004 
926	 0,110177973773077 
927	 0,10943262138906 
928	 0,109322340506096 
929	 0,10989578255558 
930	 0,109144118125549 
931	 0,108550966699898 
932	 0,108962720865447 
933	 0,109744616551517 
934	 0,110193160106159 
935	 0,109572653558573 
936	 0,110148251029207 
937	 0,111162492637497 
938	 0,108881837467791 
939	 0,107392327395955 
940	 0,108009788216272 
941	 0,108569316035162 
942	 0,108812744714779 
943	 0,108610887093322 
944	 0,10818482662823 
945	 0,107626875049842 
946	 0,107006324024694 
947	 0,106694716761776 
948	 0,1064469197827 
949	 0,104840263647924 
950	 0,103744600971107 
951	 0,104107160368789 
952	 0,104392572166844 
953	 0,10433357927611 
954	 0,103852468772414 
955	 0,103996446463768 
956	 0,104368960338664 
957	 0,103370962303077 
958	 0,102337119700431 
959	 0,101626297402705 
960	 0,100352573675371 
961	 0,100177833986077 
962	 0,10199923540385 
963	 0,102167538285682 
964	 0,101545002766854 
965	 0,102248641624192 
966	 0,101340723895081 
967	 9,93445959253343E-02 
968	 0,10003948998258 
969	 0,100839900358642 
970	 0,100784879435209 
971	 0,101169287157715 
972	 0,101034160801819 
973	 9,96752828201959E-02 
974	 9,98033368937916E-02 
975	 0,100646019983691 
976	 0,100002536976102 
977	 9,91534038183486E-02 
978	 9,87496137644255E-02 
979	 9,97150855393269E-02 
980	 0,100896758194147 
981	 0,101836841269236 
982	 0,104054234586339 
983	 0,104315559084715 
984	 0,100003121570248 
985	 0,100776690821418 
986	 0,104877586669183 
987	 0,105351682566247 
988	 0,104328743951756 
989	 0,102929310007487 
990	 0,103392132533891 
991	 0,103674415479491 
992	 0,102954530027072 
993	 0,103122967422234 
994	 0,104089987428265 
995	 0,105400270067527 
996	 0,104435183955137 
997	 0,102961700623984 
998	 0,105368201672241 
999	 0,106598280564511 
1000	 0,106218619245868 
1001	 0,108323668609912 
1002	 0,10901251678416 
1003	 0,106957913963785 
1004	 0,106571872978434 
1005	 0,10658402320329 
1006	 0,10566085007313 
1007	 0,106954458375602 
1008	 0,109218508571809 
1009	 0,109359298874391 
1010	 0,110426744977814 
1011	 0,111740460269335 
1012	 0,107905486370532 
1013	 0,107833565305523 
1014	 0,113503363672217 
1015	 0,113378322619267 
1016	 0,111017966244489 
1017	 0,110169366537646 
1018	 0,111482030339785 
1019	 0,112192315988783 
1020	 0,108167026126648 
1021	 0,105961497677503 
1022	 0,108002358816806 
1023	 0,116681515179955 
1024	 0,121202224268233 
1025	 0,118565243551103 
1026	 0,114931515574806 
1027	 0,113785503431887 
1028	 0,116240058113879 
1029	 0,112351025516382 
1030	 0,109611648043024 
1031	 0,116927868855095 
1032	 0,119449819450442 
1033	 0,117765147347258 
1034	 0,118905151595147 
1035	 0,124235596089524 
1036	 0,129521672119896 
1037	 0,117164390467809 
1038	 0,111893132995812 
1039	 0,12149019899511 
1040	 0,122457188597916 
1041	 0,118538029589581 
1042	 0,114659743203037 
1043	 0,115272957528437 
1044	 0,119827395989479 
1045	 0,125946755287976 
1046	 0,122948881353234 
1047	 0,117778443869074 
1048	 0,133615983964096 
1049	 0,133651877553753 
1050	 0,115984870161385 
1051	 0,118992605482482 
1052	 0,126240684585929 
1053	 0,128300121369657 
1054	 0,12120791568602 
1055	 0,116863601100704 
1056	 0,124227777627226 
1057	 0,128052546776454 
1058	 0,124583698412956 
1059	 0,112715134742161 
1060	 0,116348883783543 
1061	 0,13070516540285 
1062	 0,133352344249673 
1063	 0,131527290050247 
1064	 0,129823758730963 
1065	 0,139357110790437 
1066	 0,142087075058774 
1067	 0,129809863237874 
1068	 0,102474005991183 
1069	 9,65508393371902E-02 
1070	 0,132690874909306 
1071	 0,141973124323272 
1072	 0,136321150838212 
1073	 0,137883493568213 
1074	 0,141097364640677 
1075	 0,139954926177805 
