Wavelength	SCORFF200671.asd
325	 0,205735736702918 
326	 0,168944419030192 
327	 0,116073616733545 
328	 8,29914522654752E-02 
329	 0,110232853459111 
330	 0,12043796514205 
331	 6,11959239574302E-02 
332	 4,98976207911418E-02 
333	 8,65048915767175E-02 
334	 0,138406969392688 
335	 0,205714806240474 
336	 0,23208503194842 
337	 0,17574116781978 
338	 5,75167109500887E-02 
339	-5,08907014422771E-02 
340	-2,30821995706629E-02 
341	 5,06828294987359E-02 
342	-3,14474446562581E-02 
343	-3,85356184426672E-03 
344	 0,137631974508058 
345	 0,119112236555233 
346	 5,02253652384824E-02 
347	 4,32286714758454E-02 
348	 7,90150459422965E-02 
349	 0,11937372111737 
350	 9,11392994081078E-02 
351	 4,92275753130994E-02 
352	 3,02044590752169E-02 
353	 5,00049768864136E-02 
354	 6,36259343643261E-02 
355	 1,78787855031789E-02 
356	 3,22955476459753E-02 
357	 8,72607941726695E-02 
358	 0,06155937327344 
359	 4,06290196289207E-02 
360	 5,09647032571187E-02 
361	 4,81023220448609E-03 
362	-3,54087717680853E-02 
363	 3,12567904028972E-02 
364	 7,49549612445805E-02 
365	 7,67698262455978E-02 
366	 6,36640261054756E-02 
367	 0,059476975073061 
368	 7,31420140363121E-02 
369	 4,58207498245935E-02 
370	 9,76057171351283E-03 
371	 4,37470553703746E-02 
372	 5,19361568096446E-02 
373	 2,22034995225054E-02 
374	 2,10012164949332E-02 
375	 3,25726184601886E-02 
376	 4,32721958361831E-02 
377	 4,81811341744303E-02 
378	 0,045194539007425 
379	 3,03992729027642E-02 
380	 3,29165354079688E-02 
381	 5,70443218450923E-02 
382	 6,74680519748625E-02 
383	 6,53061240226096E-02 
384	 5,52498948911435E-02 
385	 4,63561213039321E-02 
386	 0,041285682666797 
387	 4,05261840059641E-02 
388	 3,80154128630875E-02 
389	 3,25244745661033E-02 
390	 0,029657732540875 
391	 3,27396874426975E-02 
392	 0,044832382307757 
393	 4,38520386426637E-02 
394	 3,24892110464639E-02 
395	 3,40735230721114E-02 
396	 3,58481953509494E-02 
397	 3,21864651486872E-02 
398	 3,01779264548435E-02 
399	 3,12507693176993E-02 
400	 3,67378830021054E-02 
401	 3,31917766090559E-02 
402	 2,33670710003398E-02 
403	 2,95690844212534E-02 
404	 3,94043461232413E-02 
405	 4,28913617089845E-02 
406	 3,33647747401293E-02 
407	 2,18005274827243E-02 
408	 0,032683614315963 
409	 4,06284885073301E-02 
410	 0,039491096279984 
411	 3,99874911399303E-02 
412	 3,74224991233372E-02 
413	 2,78660071089619E-02 
414	 0,029428095428335 
415	 3,74456237057415E-02 
416	 0,03166789736589 
417	 2,81870164655285E-02 
418	 3,21641026302423E-02 
419	 3,26065933427451E-02 
420	 3,05019020081566E-02 
421	 0,028223162832748 
422	 3,21598548505649E-02 
423	 0,040137057340883 
424	 4,10755058149733E-02 
425	 3,94830994353987E-02 
426	 3,81875967831573E-02 
427	 3,71607652554989E-02 
428	 3,60106964971572E-02 
429	 3,35670110528721E-02 
430	 3,31555756360143E-02 
431	 3,54692050574831E-02 
432	 3,94074731208897E-02 
433	 4,09432915254481E-02 
434	 0,037062239929265 
435	 3,58616946367797E-02 
436	 3,76350694555578E-02 
437	 3,93186486770532E-02 
438	 4,02694763003778E-02 
439	 3,98999203152811E-02 
440	 3,76422978925805E-02 
441	 3,53294391323677E-02 
442	 3,52175662493498E-02 
443	 3,56251831370315E-02 
444	 3,65648891063985E-02 
445	 4,00328754851292E-02 
446	 4,12573199534326E-02 
447	 3,77437351283799E-02 
448	 3,52459172958673E-02 
449	 3,44893374063183E-02 
450	 3,50368851917129E-02 
451	 3,67489123919524E-02 
452	 3,87542859194457E-02 
453	 3,82080583862852E-02 
454	 3,65209475169762E-02 
455	 3,51569596708689E-02 
456	 3,38348465300202E-02 
457	 0,033352991175857 
458	 3,59962301311116E-02 
459	 3,73123019249691E-02 
460	 3,61220511204758E-02 
461	 3,83281380970833E-02 
462	 4,12046019490592E-02 
463	 4,05001186052028E-02 
464	 3,85751888057721E-02 
465	 3,64578866649366E-02 
466	 3,48099131226673E-02 
467	 0,036274602773212 
468	 4,16103242704548E-02 
469	 4,17011833244021E-02 
470	 3,81358649684367E-02 
471	 3,64079298178024E-02 
472	 3,69595655856904E-02 
473	 3,94553648285782E-02 
474	 4,07194482239522E-02 
475	 4,08028024463348E-02 
476	 4,00083024244062E-02 
477	 3,93644511298504E-02 
478	 3,90420091809889E-02 
479	 3,87013379337667E-02 
480	 3,84448767882346E-02 
481	 3,83558810209221E-02 
482	 3,85064300423215E-02 
483	 3,93318529069572E-02 
484	 4,15424092073958E-02 
485	 4,17746006486347E-02 
486	 4,02263463855707E-02 
487	 4,11231072665567E-02 
488	 4,33225777327797E-02 
489	 4,55411248253569E-02 
490	 4,45599809065994E-02 
491	 0,041954631483225 
492	 0,042606852084447 
493	 4,26650649495011E-02 
494	 4,11859865942504E-02 
495	 4,01198387684746E-02 
496	 4,03169065680969E-02 
497	 4,24886417632864E-02 
498	 4,35420001727369E-02 
499	 4,33942043209746E-02 
500	 4,46237230745163E-02 
501	 4,42017994532927E-02 
502	 4,10509184091385E-02 
503	 4,06757268942839E-02 
504	 4,26408346984864E-02 
505	 4,50414356764976E-02 
506	 4,62730507898063E-02 
507	 4,57730120087645E-02 
508	 4,39779710327356E-02 
509	 4,26172904635871E-02 
510	 4,31536947356374E-02 
511	 4,40298127855636E-02 
512	 4,47646870943125E-02 
513	 4,49384217110798E-02 
514	 4,55703007566822E-02 
515	 0,046674656007625 
516	 4,52884122554852E-02 
517	 4,35017852351722E-02 
518	 4,45501217494053E-02 
519	 4,58449461580185E-02 
520	 4,66836677008347E-02 
521	 4,72666368598389E-02 
522	 4,72223624229018E-02 
523	 4,64481258622472E-02 
524	 0,046746328499653 
525	 4,77044020419554E-02 
526	 4,77673128544142E-02 
527	 4,75469304261922E-02 
528	 4,74071510114842E-02 
529	 4,83778072226808E-02 
530	 4,90190265349232E-02 
531	 4,76618915406565E-02 
532	 4,66988372691587E-02 
533	 4,67798239966047E-02 
534	 0,047980873273904 
535	 4,93693663960283E-02 
536	 5,02389003424942E-02 
537	 4,99017983622842E-02 
538	 4,92232341541277E-02 
539	 0,049978467130259 
540	 5,03099334663021E-02 
541	 4,98442149904528E-02 
542	 4,96290923395338E-02 
543	 4,97003989675887E-02 
544	 5,00157583022273E-02 
545	 4,99505320790259E-02 
546	 4,97524925692759E-02 
547	 5,05397311139281E-02 
548	 5,11880894580995E-02 
549	 5,11936158876537E-02 
550	 5,11723192462708E-02 
551	 0,05141031983023 
552	 5,22555964123007E-02 
553	 5,26911753272955E-02 
554	 5,26310856470378E-02 
555	 5,30985676508448E-02 
556	 5,34297178906186E-02 
557	 5,31230163478949E-02 
558	 5,33780159975396E-02 
559	 5,38751793195609E-02 
560	 5,32071330768896E-02 
561	 5,27579789402387E-02 
562	 5,30855670138861E-02 
563	 5,39638820787467E-02 
564	 5,44348633661442E-02 
565	 5,32855136907763E-02 
566	 5,35153068359213E-02 
567	 5,50930159813456E-02 
568	 5,49369309073699E-02 
569	 5,48761282730415E-02 
570	 5,60204860146009E-02 
571	 5,59941052435334E-02 
572	 0,055260580663637 
573	 0,055594783104115 
574	 5,59605493964126E-02 
575	 5,61868853357207E-02 
576	 5,73010106472083E-02 
577	 0,058070670003096 
578	 5,71160629221312E-02 
579	 5,70132039931976E-02 
580	 5,78554895039266E-02 
581	 5,80147368173233E-02 
582	 5,77061658169359E-02 
583	 5,71582172497393E-02 
584	 0,057248256134898 
585	 5,78732579265726E-02 
586	 5,87026957913718E-02 
587	 5,87288294727164E-02 
588	 5,80473217870006E-02 
589	 5,86440969702333E-02 
590	 5,95996587226553E-02 
591	 5,99803826907286E-02 
592	 6,03230151922399E-02 
593	 0,060542463484415 
594	 6,01280088854137E-02 
595	 5,97950248059553E-02 
596	 5,99020271681203E-02 
597	 6,02717526801296E-02 
598	 6,06784681156588E-02 
599	 6,08280349172854E-02 
600	 6,08694196359045E-02 
601	 6,09151172925363E-02 
602	 6,13032769672531E-02 
603	 0,061388550864768 
604	 6,07518421387704E-02 
605	 6,07950382084287E-02 
606	 6,12277119490322E-02 
607	 6,07273121753562E-02 
608	 6,02117833618626E-02 
609	 6,00397566384146E-02 
610	 6,01369348924309E-02 
611	 6,03996230450555E-02 
612	 6,07034061462947E-02 
613	 6,05809922547536E-02 
614	 6,00932971754187E-02 
615	 5,98152023332082E-02 
616	 5,98285489541336E-02 
617	 6,01109102687801E-02 
618	 5,98472157009316E-02 
619	 5,94884372619727E-02 
620	 6,01797935073681E-02 
621	 6,08403192358329E-02 
622	 6,10602665431723E-02 
623	 6,07714983322565E-02 
624	 6,04085370351805E-02 
625	 6,04192099735308E-02 
626	 0,06054981377196 
627	 6,07239047574346E-02 
628	 6,08766932303199E-02 
629	 6,10570398464821E-02 
630	 6,12370605687201E-02 
631	 0,061025950797617 
632	 6,08039753576882E-02 
633	 6,12503419759139E-02 
634	 6,16201054739996E-02 
635	 6,17913074885074E-02 
636	 6,23045054820125E-02 
637	 6,25540515100194E-02 
638	 6,20937309561386E-02 
639	 6,21063710867802E-02 
640	 6,27181871533285E-02 
641	 6,37970545943643E-02 
642	 6,42504745463556E-02 
643	 6,37441338036048E-02 
644	 6,34445589088305E-02 
645	 6,35533791322253E-02 
646	 6,41722416403447E-02 
647	 0,064081423538471 
648	 6,33192529355641E-02 
649	 6,31253131971643E-02 
650	 6,34208901853504E-02 
651	 6,40113436744328E-02 
652	 6,35713083554167E-02 
653	 6,27085659556655E-02 
654	 6,31245290688516E-02 
655	 6,32532375709877E-02 
656	 6,26779723407584E-02 
657	 6,20557679282313E-02 
658	 6,14858702651036E-02 
659	 6,10337563938248E-02 
660	 6,07101223423659E-02 
661	 6,04622656818671E-02 
662	 6,01921645123416E-02 
663	 5,96394397623524E-02 
664	 5,88365210573393E-02 
665	 5,90059524901019E-02 
666	 5,95672121658031E-02 
667	 5,94120933862963E-02 
668	 5,91558550681733E-02 
669	 5,89737825725491E-02 
670	 5,89570358985321E-02 
671	 5,86671907864437E-02 
672	 5,78749338088819E-02 
673	 5,82345202060724E-02 
674	 5,92960818917785E-02 
675	 5,93111173059372E-02 
676	 0,059251925307013 
677	 5,93911026685993E-02 
678	 5,92644396840822E-02 
679	 5,93131393624488E-02 
680	 6,00747625190132E-02 
681	 6,04605446704976E-02 
682	 6,05021242645125E-02 
683	 6,12280447840457E-02 
684	 6,18343537550702E-02 
685	 0,061911491323501 
686	 6,22058057279323E-02 
687	 6,27966805379294E-02 
688	 6,36350665800757E-02 
689	 6,45562907473655E-02 
690	 6,54928442721852E-02 
691	 6,64291500859052E-02 
692	 6,75736193963015E-02 
693	 6,90845214431627E-02 
694	 7,04411188192851E-02 
695	 7,17190009357394E-02 
696	 7,33256364243969E-02 
697	 7,53221358138358E-02 
698	 7,76490651668688E-02 
699	 7,97096289171812E-02 
700	 0,081745663266786 
701	 8,41458480954082E-02 
702	 8,64413388980228E-02 
703	 8,86447242730971E-02 
704	 9,12380465531775E-02 
705	 9,37677360346568E-02 
706	 9,59445540945678E-02 
707	 9,79711462607471E-02 
708	 9,99670583846345E-02 
709	 0,102096801893793 
710	 0,104062336770799 
711	 0,105847760654907 
712	 0,107833484414598 
713	 0,109733543092421 
714	 0,11127488128647 
715	 0,112623084013863 
716	 0,113935249085646 
717	 0,115579342982995 
718	 0,116878184879481 
719	 0,117655013311341 
720	 0,118664191988333 
721	 0,119986849139643 
722	 0,121626925444053 
723	 0,122734604403204 
724	 0,123235462435087 
725	 0,123683865978392 
726	 0,124118216139743 
727	 0,12460330286285 
728	 0,125310965309037 
729	 0,126083176343779 
730	 0,126598402269118 
731	 0,12715731448855 
732	 0,127802551322133 
733	 0,128378506369254 
734	 0,128691001922059 
735	 0,128623169036071 
736	 0,128800896735638 
737	 0,129329648699013 
738	 0,130251585773123 
739	 0,130677576852781 
740	 0,130422885116057 
741	 0,130681746402194 
742	 0,131171563553039 
743	 0,131449363637156 
744	 0,131559455163631 
745	 0,131637952876298 
746	 0,132136226919748 
747	 0,132427701121428 
748	 0,13225590704139 
749	 0,132375285414752 
750	 0,132703264957239 
751	 0,132968498934408 
752	 0,13324641847471 
753	 0,133571796896786 
754	 0,134054055971045 
755	 0,134469072597584 
756	 0,134642660095415 
757	 0,134528959211667 
758	 0,13448812099178 
759	 0,135285690094675 
760	 0,135793834992322 
761	 0,135729672756647 
762	 0,135660772732103 
763	 0,135886694471836 
764	 0,136613427691057 
765	 0,137025775912728 
766	 0,13704741955137 
767	 0,136865504868758 
768	 0,137040471202821 
769	 0,137663050680092 
770	 0,13769095747924 
771	 0,137564368516076 
772	 0,137896909681102 
773	 0,13827832350135 
774	 0,138606214589214 
775	 0,138907838145918 
776	 0,138957264793238 
777	 0,138714614422501 
778	 0,138800393577598 
779	 0,138953903411868 
780	 0,138680534935718 
781	 0,138747757696068 
782	 0,139229271322869 
783	 0,139700299113681 
784	 0,139767818799481 
785	 0,139296181477855 
786	 0,139486711715634 
787	 0,140099075143141 
788	 0,140405343965229 
789	 0,140451087799955 
790	 0,140380768591069 
791	 0,140881694301506 
792	 0,141153569202965 
793	 0,140647272025426 
794	 0,14078915517991 
795	 0,141378124421135 
796	 0,141482975404091 
797	 0,141406130135319 
798	 0,141330380086002 
799	 0,141687340624347 
800	 0,142185380088124 
801	 0,142504952292612 
802	 0,142420549203754 
803	 0,142142675123636 
804	 0,142267449725006 
805	 0,142701784316179 
806	 0,143260909688494 
807	 0,143089115252839 
808	 0,142834480475888 
809	 0,143225468435429 
810	 0,143394499043745 
811	 0,143351502521612 
812	 0,143633053084978 
813	 0,143904742851257 
814	 0,144035380008314 
815	 0,144138407797437 
816	 0,144202923568329 
817	 0,144212278393364 
818	 0,144388056708831 
819	 0,144667588045692 
820	 0,144704646793656 
821	 0,144739207133354 
822	 0,144873266417659 
823	 0,144953698936629 
824	 0,145116035715234 
825	 0,14554062114665 
826	 0,14564097591944 
827	 0,145480431086284 
828	 0,145733394332209 
829	 0,146012010718517 
830	 0,146112576704607 
831	 0,146095020776323 
832	 0,146054702215091 
833	 0,146110676824437 
834	 0,146738140538196 
835	 0,147603330011655 
836	 0,147260383401942 
837	 0,146872813951927 
838	 0,147060687229287 
839	 0,147343718553713 
840	 0,147489978485927 
841	 0,14725288832722 
842	 0,147239020930289 
843	 0,147493313978758 
844	 0,147550946812167 
845	 0,147887771038282 
846	 0,148580766003648 
847	 0,148338648373197 
848	 0,147627443553364 
849	 0,147304447148401 
850	 0,147506811280628 
851	 0,14802110985694 
852	 0,148022095181133 
853	 0,147722712969704 
854	 0,147304584781933 
855	 0,147108442274518 
856	 0,14731504407432 
857	 0,148084599017173 
858	 0,148242698537817 
859	 0,147705004728988 
860	 0,147164798251025 
861	 0,147109841446835 
862	 0,147662391978271 
863	 0,14757505119736 
864	 0,147419507246474 
865	 0,148088962513554 
866	 0,148298330763617 
867	 0,148111439840442 
868	 0,148815201176134 
869	 0,148788524845975 
870	 0,147630489184411 
871	 0,147930501226382 
872	 0,148725889203501 
873	 0,148599544397712 
874	 0,148864492819123 
875	 0,149463534475788 
876	 0,149421909280236 
877	 0,149497047556041 
878	 0,149956395360057 
879	 0,150366006254288 
880	 0,150818760945017 
881	 0,15139225707857 
882	 0,150954333738104 
883	 0,149979669164312 
884	 0,150234761957278 
885	 0,150842816608743 
886	 0,151456848173547 
887	 0,151973050687397 
888	 0,152179402286512 
889	 0,151943311093734 
890	 0,15199136224288 
891	 0,152109714671484 
892	 0,151467007306386 
893	 0,151182065335265 
894	 0,151569681869594 
895	 0,152301814253837 
896	 0,152627731768729 
897	 0,152027045210129 
898	 0,151264755828373 
899	 0,151065949216038 
900	 0,152504194696307 
901	 0,152619999921396 
902	 0,151268272536929 
903	 0,151406017703512 
904	 0,151857633378402 
905	 0,151831765848799 
906	 0,15127898575104 
907	 0,150653222696274 
908	 0,150606253560776 
909	 0,151199588066136 
910	 0,152071134414345 
911	 0,152094382892777 
912	 0,151960398411667 
913	 0,152006031165711 
914	 0,152118314128342 
915	 0,152409620747363 
916	 0,152939730412845 
917	 0,152402622812789 
918	 0,151336718805214 
919	 0,151799976813407 
920	 0,1520568211431 
921	 0,15171682511037 
922	 0,151921825317384 
923	 0,152155997270247 
924	 0,152047185489752 
925	 0,152707096258858 
926	 0,153788003321465 
927	 0,154427543052853 
928	 0,154013322366333 
929	 0,152840338839724 
930	 0,1525508993297 
931	 0,153209986070107 
932	 0,15457087392202 
933	 0,154774086095109 
934	 0,154293672616094 
935	 0,154068529012047 
936	 0,15532905893983 
937	 0,157128863104462 
938	 0,156015375837166 
939	 0,154897126569324 
940	 0,15483414729096 
941	 0,154967978725348 
942	 0,155199328114051 
943	 0,155396417313465 
944	 0,154771931379937 
945	 0,154189060934902 
946	 0,155515818844362 
947	 0,155763087478596 
948	 0,15443852074641 
949	 0,152990880759151 
950	 0,152535093862205 
951	 0,153505986726501 
952	 0,153922714686939 
953	 0,154014028150811 
954	 0,154304655628719 
955	 0,154096278745535 
956	 0,153771235043165 
957	 0,154821541888333 
958	 0,154548520619503 
959	 0,152708872099238 
960	 0,152620071461487 
961	 0,153528215262524 
962	 0,154567662412554 
963	 0,154526876916565 
964	 0,153517230015168 
965	 0,152031795733659 
966	 0,153448715123338 
967	 0,156614357238386 
968	 0,155260374449076 
969	 0,15348749459072 
970	 0,153140531612027 
971	 0,154214375327255 
972	 0,154273037263388 
973	 0,151641697291989 
974	 0,153264400403002 
975	 0,156513008777214 
976	 0,154656301702648 
977	 0,15333112610658 
978	 0,153710350551355 
979	 0,154309508074912 
980	 0,15463451118978 
981	 0,154592022842412 
982	 0,155447365281965 
983	 0,15652901841825 
984	 0,157107497448829 
985	 0,15800309015308 
986	 0,158984433942107 
987	 0,159416474231925 
988	 0,158545726641025 
989	 0,157099724536563 
990	 0,158744758785548 
991	 0,158592784996456 
992	 0,155157007155908 
993	 0,155818518802847 
994	 0,158737142008387 
995	 0,161021903318195 
996	 0,159196549149542 
997	 0,156016367219158 
998	 0,158238033764219 
999	 0,158502094399327 
1000	 0,1565662134031 
1001	 0,159353359992197 
1002	 0,161351347103793 
1003	 0,160347472257091 
1004	 0,160959815474737 
1005	 0,161303200241264 
1006	 0,159483830756719 
1007	 0,158769210186269 
1008	 0,159486211085821 
1009	 0,161137145097161 
1010	 0,162565714731365 
1011	 0,162544583069826 
1012	 0,157741715358346 
1013	 0,157828832478605 
1014	 0,164692017178111 
1015	 0,164099503519138 
1016	 0,161180004431154 
1017	 0,160996501707654 
1018	 0,162419458867287 
1019	 0,16292932638833 
1020	 0,159118848393143 
1021	 0,157324810335777 
1022	 0,159580145169158 
1023	 0,167550534983853 
1024	 0,169634127891257 
1025	 0,164298087878168 
1026	 0,165805046558976 
1027	 0,166165304674672 
1028	 0,161267353798696 
1029	 0,16226884199226 
1030	 0,165380027483864 
1031	 0,165062673428466 
1032	 0,166279763860544 
1033	 0,167870691206986 
1034	 0,165633161427537 
1035	 0,168441622904035 
1036	 0,174288379097225 
1037	 0,166382417010004 
1038	 0,162696737148258 
1039	 0,168566507287424 
1040	 0,165133170561251 
1041	 0,162517374494306 
1042	 0,168287350318833 
1043	 0,166051761352214 
1044	 0,162340339804395 
1045	 0,168458239436584 
1046	 0,169151049851686 
1047	 0,166951578930236 
1048	 0,176183392647774 
1049	 0,176144141539853 
1050	 0,165834894869958 
1051	 0,167285279057864 
1052	 0,168214506062017 
1053	 0,164122593402716 
1054	 0,165332166138089 
1055	 0,17204351981541 
1056	 0,181311600749848 
1057	 0,175200398561489 
1058	 0,161985644059557 
1059	 0,157977946968705 
1060	 0,164423776605862 
1061	 0,173018217685273 
1062	 0,1645453878838 
1063	 0,161128379018737 
1064	 0,166669036137883 
1065	 0,16934849849936 
1066	 0,172690667070103 
1067	 0,174292493188646 
1068	 0,153100786914323 
1069	 0,144458410010304 
1070	 0,170836489765661 
1071	 0,174027056263681 
1072	 0,169092204642936 
1073	 0,179230810089642 
1074	 0,18470599646798 
1075	 0,182045830246489 
