Wavelength	SCORFF200877.asd
325	 0,442100479170916 
326	 0,436064094744333 
327	 0,315174224104077 
328	 0,144773537414388 
329	 0,220875176551385 
330	 0,325329441180576 
331	 0,299807757548343 
332	 0,162638351857984 
333	 6,99455462015001E-02 
334	 0,280835099854959 
335	 0,409143423373784 
336	 0,313728785381791 
337	 0,269713411395954 
338	 0,21024243897159 
339	 0,104926456572845 
340	 0,154923870857679 
341	 0,261804337569964 
342	 0,206638038704312 
343	 0,209785550054921 
344	 0,2907878879633 
345	 0,261513217659884 
346	 0,212396033393868 
347	 0,235065617686158 
348	 0,231783631108388 
349	 0,214453155535119 
350	 0,254748166623236 
351	 0,28064086652375 
352	 0,264651462276784 
353	 0,26516850811464 
354	 0,261753646957801 
355	 0,225697912338604 
356	 0,20031545860646 
357	 0,203761136351551 
358	 0,245238916081933 
359	 0,26855671425378 
360	 0,250649970850164 
361	 0,206171588401132 
362	 0,189012969872824 
363	 0,26835332729742 
364	 0,304973053106733 
365	 0,286365809241355 
366	 0,273260300157625 
367	 0,259496382305972 
368	 0,242998232098357 
369	 0,233592121452467 
370	 0,236664281082142 
371	 0,261950220327581 
372	 0,258087826763169 
373	 0,22711034861053 
374	 0,244010619608044 
375	 0,258474471921713 
376	 0,237389880295487 
377	 0,247025463634419 
378	 0,274622699751645 
379	 0,275452396906978 
380	 0,264748409060688 
381	 0,253658702179128 
382	 0,278926601191393 
383	 0,294560541050494 
384	 0,261849749814503 
385	 0,238774570234095 
386	 0,233828720324927 
387	 0,236302891069612 
388	 0,245853062763495 
389	 0,257413802465816 
390	 0,253675463021545 
391	 0,249334424719261 
392	 0,263083929050285 
393	 0,261550385644835 
394	 0,247425901874949 
395	 0,250681342305011 
396	 0,255143822655265 
397	 0,252989333215717 
398	 0,247567653932592 
399	 0,245054386218704 
400	 0,253950988371108 
401	 0,254438164136965 
402	 0,245029614095479 
403	 0,238321523547624 
404	 0,243025465033058 
405	 0,261352222403341 
406	 0,259860967147798 
407	 0,248666926847291 
408	 0,258031807602004 
409	 0,26398184816394 
410	 0,260677364011574 
411	 0,255054135715763 
412	 0,250064652983919 
413	 0,248162618963591 
414	 0,251548093168355 
415	 0,256775896400194 
416	 0,254921286959759 
417	 0,253663354863274 
418	 0,254984984504312 
419	 0,249952037953984 
420	 0,245598735274512 
421	 0,25162803244158 
422	 0,256134684056598 
423	 0,257065068174797 
424	 0,257875472931838 
425	 0,258083353526677 
426	 0,2575051568886 
427	 0,256713671213823 
428	 0,256033715315246 
429	 0,255803555104826 
430	 0,255472658466929 
431	 0,255334958114371 
432	 0,257309818932024 
433	 0,25951925491297 
434	 0,260266617696609 
435	 0,261028415092125 
436	 0,260928349310731 
437	 0,2565149948257 
438	 0,254832178665326 
439	 0,257807980330398 
440	 0,25760019572734 
441	 0,25604869521237 
442	 0,256342674455872 
443	 0,257793417746024 
444	 0,259632082696921 
445	 0,26009723841937 
446	 0,259190676326271 
447	 0,257161218104946 
448	 0,255503966213421 
449	 0,255991967087754 
450	 0,261721686248686 
451	 0,264145960036885 
452	 0,261634736411604 
453	 0,260073892473995 
454	 0,261352655898526 
455	 0,266376590263526 
456	 0,264744272552535 
457	 0,258561152978853 
458	 0,258368739152441 
459	 0,261581534408213 
460	 0,266219908860713 
461	 0,266085877197723 
462	 0,264368945966737 
463	 0,266158885788838 
464	 0,265116172478466 
465	 0,261729173326086 
466	 0,263079863857437 
467	 0,264819066007783 
468	 0,264138633552949 
469	 0,263726171745195 
470	 0,263869565203565 
471	 0,264570942423461 
472	 0,263888374851177 
473	 0,262000316220882 
474	 0,263026615429127 
475	 0,264261091489791 
476	 0,262917589840584 
477	 0,260929144657412 
478	 0,259672882352349 
479	 0,261804913147235 
480	 0,263879525238043 
481	 0,264027520528073 
482	 0,261812367319293 
483	 0,259922984614127 
484	 0,262304300590891 
485	 0,26326129056719 
486	 0,261805111779869 
487	 0,260256627836894 
488	 0,260088083055743 
489	 0,262110266945544 
490	 0,262626679639886 
491	 0,261929037585915 
492	 0,262280077741858 
493	 0,261939026839813 
494	 0,260576674928523 
495	 0,259414615311261 
496	 0,259029069739403 
497	 0,259906387581622 
498	 0,260454635187998 
499	 0,260365578415613 
500	 0,259916392528191 
501	 0,25996264103269 
502	 0,260800951802059 
503	 0,260327640038617 
504	 0,259782010469905 
505	 0,261838027053569 
506	 0,263306169578369 
507	 0,263413478183187 
508	 0,263359428918307 
509	 0,26333717431293 
510	 0,263482239767636 
511	 0,263763064429709 
512	 0,264182038602004 
513	 0,264813090619024 
514	 0,265355549073629 
515	 0,26546790195989 
516	 0,263904482736957 
517	 0,26247309668006 
518	 0,26382648974418 
519	 0,263895637782006 
520	 0,262620728688502 
521	 0,263860734026991 
522	 0,265154657198366 
523	 0,264841279114183 
524	 0,265692341578193 
525	 0,266979005347673 
526	 0,266145738946956 
527	 0,265054484656122 
528	 0,264485410646416 
529	 0,264814844230451 
530	 0,265357357110742 
531	 0,265305066173933 
532	 0,265078512313955 
533	 0,264691205444858 
534	 0,263797696080693 
535	 0,263335439656045 
536	 0,263767938593054 
537	 0,264039005897704 
538	 0,263874425895466 
539	 0,262972233883895 
540	 0,262831104348643 
541	 0,263745826273143 
542	 0,264692785621363 
543	 0,265018244200193 
544	 0,264242046869693 
545	 0,264631518917199 
546	 0,26586998353362 
547	 0,265685026146544 
548	 0,265463462334265 
549	 0,265865337793897 
550	 0,266618451788242 
551	 0,267231114813 
552	 0,266982571472354 
553	 0,267068196070497 
554	 0,267590192664929 
555	 0,26749903677112 
556	 0,267225805484818 
557	 0,267115104088818 
558	 0,266529807344366 
559	 0,265696980695931 
560	 0,265375637724703 
561	 0,265308778245354 
562	 0,265349540118356 
563	 0,26519081682334 
564	 0,26493269432587 
565	 0,264749627308744 
566	 0,264655663971644 
567	 0,264788460444748 
568	 0,265490686204764 
569	 0,266658382640312 
570	 0,268007300429404 
571	 0,26758220747692 
572	 0,26649699693878 
573	 0,267732547355447 
574	 0,269627522196877 
575	 0,271359324391329 
576	 0,271854359427551 
577	 0,271928179667285 
578	 0,272598960955027 
579	 0,273736779523836 
580	 0,275033698511183 
581	 0,275602304122481 
582	 0,276103475026805 
583	 0,276892763226523 
584	 0,277583621331958 
585	 0,278208295482241 
586	 0,278969006915863 
587	 0,278970803573117 
588	 0,278485348175671 
589	 0,279965801746172 
590	 0,281528015148338 
591	 0,281384417733856 
592	 0,28139696176406 
593	 0,281781642282113 
594	 0,282059907907837 
595	 0,282446397397251 
596	 0,283008405790761 
597	 0,283636404828096 
598	 0,284014950518443 
599	 0,283714878222665 
600	 0,28324795411741 
601	 0,282894835000514 
602	 0,283100055912623 
603	 0,283062997548826 
604	 0,282226903440713 
605	 0,281969223957465 
606	 0,281987745797396 
607	 0,280902039934919 
608	 0,280024961368705 
609	 0,279760505969586 
610	 0,279286983287802 
611	 0,278870905758246 
612	 0,27891227662073 
613	 0,278564630669843 
614	 0,277821109124856 
615	 0,277351687875568 
616	 0,277120131490354 
617	 0,277098230783885 
618	 0,277183924884086 
619	 0,277292079255469 
620	 0,277329657744698 
621	 0,277186531117389 
622	 0,276957781811569 
623	 0,277297509793018 
624	 0,277674006427414 
625	 0,277512457493807 
626	 0,277112813183575 
627	 0,2767854521546 
628	 0,277218725708377 
629	 0,277635238847153 
630	 0,277691106994712 
631	 0,278098749966772 
632	 0,27859104551933 
633	 0,278583953480259 
634	 0,27900628870794 
635	 0,279962716335548 
636	 0,280755926126453 
637	 0,281182145441211 
638	 0,28118614571686 
639	 0,282217336822346 
640	 0,283819630446145 
641	 0,284123180068352 
642	 0,284568101631021 
643	 0,285556634712797 
644	 0,285899622279472 
645	 0,286040803678161 
646	 0,286689854425083 
647	 0,286823747390285 
648	 0,286318604406455 
649	 0,285638285009552 
650	 0,285115633961948 
651	 0,284899460755027 
652	 0,284073081638189 
653	 0,282921285389417 
654	 0,282306688636021 
655	 0,2817061557963 
656	 0,280944861666047 
657	 0,280043406736268 
658	 0,279059146866426 
659	 0,278049158963926 
660	 0,276790381952539 
661	 0,275516059717599 
662	 0,275096609204073 
663	 0,274240837896489 
664	 0,272477579240281 
665	 0,271456313801128 
666	 0,271047007953362 
667	 0,270743192721832 
668	 0,27025424871009 
669	 0,269566462578652 
670	 0,269095402135663 
671	 0,268761100248769 
672	 0,268504718893604 
673	 0,268508926187285 
674	 0,268679863164991 
675	 0,268769878395359 
676	 0,268745062207544 
677	 0,268605912038657 
678	 0,268464490806468 
679	 0,268512306443138 
680	 0,268950215327686 
681	 0,269358457225081 
682	 0,269729978625542 
683	 0,270357432034999 
684	 0,271208016293553 
685	 0,272298957020521 
686	 0,273776382682322 
687	 0,275776622474755 
688	 0,278541196596269 
689	 0,281110160984232 
690	 0,283597253685381 
691	 0,287745326253563 
692	 0,292934062887457 
693	 0,298535120632404 
694	 0,304634092004166 
695	 0,311340583745933 
696	 0,318873225782557 
697	 0,327441624105666 
698	 0,337011201903623 
699	 0,346813035005918 
700	 0,356837511521247 
701	 0,367206345257014 
702	 0,377424078348299 
703	 0,387470789242561 
704	 0,397955695337071 
705	 0,407863785184834 
706	 0,416675566769471 
707	 0,426035333720606 
708	 0,435298446012752 
709	 0,442744637862265 
710	 0,45028865184301 
711	 0,458292299477653 
712	 0,465396491139174 
713	 0,472090825071287 
714	 0,478828119526056 
715	 0,484663765346583 
716	 0,489661564803426 
717	 0,494390789280416 
718	 0,499145773022595 
719	 0,503907988199936 
720	 0,507522807669716 
721	 0,510704402214662 
722	 0,514499291715494 
723	 0,51756847578388 
724	 0,519921231561869 
725	 0,522671529049479 
726	 0,525326886996011 
727	 0,527554545892457 
728	 0,529241065726914 
729	 0,530681046588876 
730	 0,532417903591038 
731	 0,534057711294558 
732	 0,535488083381897 
733	 0,536767287005456 
734	 0,537968144509441 
735	 0,539118076000267 
736	 0,539661187052116 
737	 0,540002655417488 
738	 0,541499896481695 
739	 0,542340978276284 
740	 0,542068886585039 
741	 0,542293839247007 
742	 0,54288182421614 
743	 0,543514204765161 
744	 0,544033105108455 
745	 0,544372095621557 
746	 0,544500387700483 
747	 0,544670817800548 
748	 0,544992667498413 
749	 0,54510301366954 
750	 0,54521342632488 
751	 0,545724303666095 
752	 0,54581765613426 
753	 0,545626187493034 
754	 0,546553019113268 
755	 0,547472368633386 
756	 0,547579288372652 
757	 0,547600272434403 
758	 0,547791379844667 
759	 0,548452504127529 
760	 0,548959067941283 
761	 0,549153515055296 
762	 0,549359147290924 
763	 0,549810357737346 
764	 0,550660070048513 
765	 0,55103796778744 
766	 0,551017935033031 
767	 0,551217966032142 
768	 0,551624613235315 
769	 0,552175304112471 
770	 0,552455769396413 
771	 0,552487911737934 
772	 0,552353126022998 
773	 0,552318959377562 
774	 0,552405624372265 
775	 0,5524277111112 
776	 0,552485489130271 
777	 0,552587899557433 
778	 0,552471998291654 
779	 0,552213561655502 
780	 0,551960470194619 
781	 0,551991076618343 
782	 0,55221399849366 
783	 0,55204101293185 
784	 0,551682610076188 
785	 0,551315458542319 
786	 0,551125570175796 
787	 0,551129489357971 
788	 0,551311094991869 
789	 0,55127441958434 
790	 0,551043556383231 
791	 0,55128129239117 
792	 0,551629171999024 
793	 0,551795570901755 
794	 0,552051939926113 
795	 0,552313087482482 
796	 0,552314202419583 
797	 0,552313138570117 
798	 0,552408249559674 
799	 0,552568344119519 
800	 0,552843117472501 
801	 0,553257612864275 
802	 0,553514400710863 
803	 0,55359517903485 
804	 0,553565415243512 
805	 0,553778537287509 
806	 0,554304808511513 
807	 0,5547059260807 
808	 0,554865019467909 
809	 0,554715843740983 
810	 0,554686475132934 
811	 0,554820874473186 
812	 0,555013089070564 
813	 0,554826533427637 
814	 0,554242490958491 
815	 0,554422877666534 
816	 0,554659245222221 
817	 0,554032409281581 
818	 0,554093144795007 
819	 0,554788748886556 
820	 0,554890978292975 
821	 0,554922671174603 
822	 0,555121607485355 
823	 0,555528653590746 
824	 0,555620280250079 
825	 0,554758887823675 
826	 0,55511760181541 
827	 0,556455550591497 
828	 0,556293985014414 
829	 0,555874898720638 
830	 0,555857032210357 
831	 0,55612494026593 
832	 0,55645857236931 
833	 0,556563300967471 
834	 0,557125246954441 
835	 0,557988188382577 
836	 0,558118033962583 
837	 0,558163831485058 
838	 0,558457519525454 
839	 0,55871531461557 
840	 0,558841396402753 
841	 0,558750914600515 
842	 0,558193330305462 
843	 0,55756216249935 
844	 0,558339803501754 
845	 0,558919642753249 
846	 0,55852366478781 
847	 0,558555775997279 
848	 0,55864600177276 
849	 0,558070733055369 
850	 0,557745063542793 
851	 0,557619083250682 
852	 0,556660180333712 
853	 0,556084359343975 
854	 0,556410604956304 
855	 0,556284438294334 
856	 0,555975462439509 
857	 0,556056917844545 
858	 0,55568883801059 
859	 0,555033979366039 
860	 0,55525829052517 
861	 0,55548890690209 
862	 0,555316940465033 
863	 0,555324459853092 
864	 0,555208751298682 
865	 0,554533001151597 
866	 0,554644146751847 
867	 0,55553347530808 
868	 0,556154112206753 
869	 0,556707615789768 
870	 0,557219494695133 
871	 0,557464981658504 
872	 0,557628988638707 
873	 0,557953393180212 
874	 0,55838260356876 
875	 0,558767497096255 
876	 0,558661428374989 
877	 0,55878714466616 
878	 0,559457710350173 
879	 0,560529048496485 
880	 0,561331354635146 
881	 0,561209415758032 
882	 0,561177669871966 
883	 0,561385463137238 
884	 0,561646529788178 
885	 0,561705086602463 
886	 0,561692482395851 
887	 0,562883348108289 
888	 0,563865084151551 
889	 0,563349487522282 
890	 0,563112842659829 
891	 0,56329045300372 
892	 0,563486921429796 
893	 0,563189865703107 
894	 0,56251504499628 
895	 0,562870697595548 
896	 0,563162305879885 
897	 0,56252555843391 
898	 0,561577001507647 
899	 0,56096045092952 
900	 0,561628083566334 
901	 0,561878595264065 
902	 0,561355210608942 
903	 0,56081328728883 
904	 0,560287482426892 
905	 0,559830927448945 
906	 0,559486807109699 
907	 0,559411544957438 
908	 0,559803673654674 
909	 0,559244715805703 
910	 0,557967985438883 
911	 0,557805278069556 
912	 0,558047010982064 
913	 0,558266402939734 
914	 0,557900948032057 
915	 0,557752766540497 
916	 0,558687529613324 
917	 0,559044743473731 
918	 0,558804300967647 
919	 0,558876314035667 
920	 0,558551420968654 
921	 0,557805892675499 
922	 0,557446270661979 
923	 0,557833017869245 
924	 0,559090313636093 
925	 0,559874724047471 
926	 0,559787054658543 
927	 0,558546002952988 
928	 0,558262443992204 
929	 0,559153663810234 
930	 0,559374678171161 
931	 0,559824648555919 
932	 0,560785036408112 
933	 0,560431711438717 
934	 0,559946153901272 
935	 0,561016473292935 
936	 0,561241945657403 
937	 0,560518672959277 
938	 0,560059850901711 
939	 0,559804963564036 
940	 0,55985921097397 
941	 0,56062132537769 
942	 0,561006378103047 
943	 0,560119539887437 
944	 0,559251790097633 
945	 0,558462864439056 
946	 0,557404722676534 
947	 0,556897622294391 
948	 0,556952919055515 
949	 0,556819316824401 
950	 0,555985965896582 
951	 0,554350085687188 
952	 0,553198545973432 
953	 0,552776864269938 
954	 0,553109249115895 
955	 0,552496250743196 
956	 0,551272632691926 
957	 0,551556947251019 
958	 0,549981638360543 
959	 0,546617347268711 
960	 0,547165680074108 
961	 0,548487870653938 
962	 0,548013128643946 
963	 0,546689082105794 
964	 0,545389159076414 
965	 0,545233897687877 
966	 0,545465632315348 
967	 0,545656702749628 
968	 0,545203435512406 
969	 0,544395044193145 
970	 0,543529545637801 
971	 0,543318067688502 
972	 0,543535618923233 
973	 0,54393938413549 
974	 0,545019291148809 
975	 0,545623353480341 
976	 0,543626353640583 
977	 0,543181530281375 
978	 0,544446397460862 
979	 0,543221436355565 
980	 0,544203829244788 
981	 0,548732745145128 
982	 0,550573256628056 
983	 0,549672334932851 
984	 0,546963293331178 
985	 0,547391885200262 
986	 0,549498294242022 
987	 0,548452611722328 
988	 0,547542251308546 
989	 0,547938605128223 
990	 0,550460250884829 
991	 0,552642724508291 
992	 0,553037943752587 
993	 0,551507197276145 
994	 0,551332873611042 
995	 0,55537869969378 
996	 0,556468950444463 
997	 0,55507389490392 
998	 0,554764960120951 
999	 0,555629639515775 
1000	 0,557297671420444 
1001	 0,55797033082807 
1002	 0,558243122055098 
1003	 0,558349531834502 
1004	 0,55758151926754 
1005	 0,558018587541769 
1006	 0,561410369865003 
1007	 0,56420473905746 
1008	 0,565365626724192 
1009	 0,564377499019992 
1010	 0,562827946553463 
1011	 0,561401698690525 
1012	 0,56012373862665 
1013	 0,560792206704654 
1014	 0,563539030820295 
1015	 0,565097963454011 
1016	 0,564330472468562 
1017	 0,561385103261863 
1018	 0,56465223048316 
1019	 0,570292281075302 
1020	 0,570826096107554 
1021	 0,567468665285146 
1022	 0,563526431124733 
1023	 0,567407728313869 
1024	 0,569521412926553 
1025	 0,567952954953286 
1026	 0,570117899784984 
1027	 0,572570875280185 
1028	 0,572693136862637 
1029	 0,570083092253391 
1030	 0,566519615533379 
1031	 0,564344032050862 
1032	 0,566350749939182 
1033	 0,570526214678359 
1034	 0,57165607568226 
1035	 0,573737052134431 
1036	 0,575593124161397 
1037	 0,568699364616987 
1038	 0,567250277752193 
1039	 0,574448747345501 
1040	 0,570959138402043 
1041	 0,563066556162374 
1042	 0,558016996130762 
1043	 0,560541448927828 
1044	 0,56840924124121 
1045	 0,576887444959916 
1046	 0,578955383234689 
1047	 0,577017182894956 
1048	 0,580844727470924 
1049	 0,586238172589231 
1050	 0,590124114535801 
1051	 0,583987104161909 
1052	 0,577944002884873 
1053	 0,577312663007234 
1054	 0,580367140935541 
1055	 0,582649422459406 
1056	 0,581055504226036 
1057	 0,583987661418552 
1058	 0,584452336238702 
1059	 0,572107034457624 
1060	 0,574620115686555 
1061	 0,587186701329309 
1062	 0,585807400406562 
1063	 0,581408865565565 
1064	 0,577864055250899 
1065	 0,578060861661709 
1066	 0,577723685643431 
1067	 0,574651383649336 
1068	 0,566876347598942 
1069	 0,568084388769279 
1070	 0,584647579696428 
1071	 0,58390647411793 
1072	 0,576007770887081 
1073	 0,576834629480926 
1074	 0,587063367730517 
1075	 0,593784005450788 
