Wavelength	SCORFF200663.asd
325	 0,54227547138752 
326	 0,398527244078479 
327	 0,30520000118108 
328	 0,328319077671415 
329	 0,323325515400464 
330	 0,3118089449311 
331	 0,305404148918793 
332	 0,197491592777951 
333	 9,50540958268934E-02 
334	 0,178151381605861 
335	 0,283802938941643 
336	 0,29868700667881 
337	 0,244183369170835 
338	 0,150908099475338 
339	 8,99914225808501E-02 
340	 9,50725750273667E-02 
341	 0,121611518368921 
342	 7,29844880063717E-02 
343	 0,104297275572458 
344	 0,203207399584026 
345	 0,166435773982558 
346	 0,089885866102021 
347	 7,49836339158143E-02 
348	 0,104769875464562 
349	 0,148885159213703 
350	 0,156008264155158 
351	 0,151786979578021 
352	 0,145751472777728 
353	 0,131968509040572 
354	 0,111649218566442 
355	 8,59806050533479E-02 
356	 9,13483396815911E-02 
357	 0,126263662122006 
358	 0,177185924588637 
359	 0,1710265452782 
360	 8,81900557065326E-02 
361	 5,18806440304734E-02 
362	 6,63632437782943E-02 
363	 0,108248641919421 
364	 0,128405859865246 
365	 0,123637237742703 
366	 0,120924611499053 
367	 0,12429816529388 
368	 0,133956620352955 
369	 0,132007870412739 
370	 0,11723175738347 
371	 9,32264070605605E-02 
372	 7,42846437232576E-02 
373	 6,65774488370441E-02 
374	 7,73186388694499E-02 
375	 8,86959004214776E-02 
376	 8,90590129895609E-02 
377	 9,11162255771821E-02 
378	 9,81848885346718E-02 
379	 0,115081970796721 
380	 0,123926947036644 
381	 0,120697776950763 
382	 0,123088702894454 
383	 0,118284627505379 
384	 9,57766242431974E-02 
385	 0,095121741654058 
386	 0,111304697133889 
387	 0,113129349088486 
388	 0,110970701625441 
389	 0,106843504995759 
390	 8,84794478650489E-02 
391	 7,57467203285752E-02 
392	 9,40289147569991E-02 
393	 0,090796731893901 
394	 0,07042359100259 
395	 8,24681183609174E-02 
396	 9,30456628230017E-02 
397	 8,81420205116151E-02 
398	 9,27012831769602E-02 
399	 0,101466234543601 
400	 0,103814117258034 
401	 9,92555781676231E-02 
402	 8,98163936730957E-02 
403	 8,06493269274826E-02 
404	 8,20755678349745E-02 
405	 9,74980616045741E-02 
406	 9,16798154666048E-02 
407	 7,66758999059049E-02 
408	 8,67209820286134E-02 
409	 9,78872926441787E-02 
410	 0,102408182933444 
411	 0,101548590314999 
412	 9,38690848273039E-02 
413	 7,91591612637499E-02 
414	 8,03509808140764E-02 
415	 0,091233026744735 
416	 8,55516738543638E-02 
417	 8,12662402744291E-02 
418	 8,40244775783222E-02 
419	 8,06954580473162E-02 
420	 7,73025793033125E-02 
421	 0,082713700002845 
422	 8,93220092028909E-02 
423	 0,093196419962995 
424	 8,86905124957807E-02 
425	 8,33358699545569E-02 
426	 0,081787618080069 
427	 8,24850340456563E-02 
428	 8,38155435869258E-02 
429	 8,32198671531562E-02 
430	 8,37366539110116E-02 
431	 8,52468964037775E-02 
432	 8,31774319351783E-02 
433	 8,18282795201169E-02 
434	 8,47691763047134E-02 
435	 8,50638129327544E-02 
436	 8,30868065907169E-02 
437	 8,29963692969246E-02 
438	 8,27011587354685E-02 
439	 8,19728839218624E-02 
440	 8,44902904223386E-02 
441	 0,086316019448559 
442	 8,22730342190543E-02 
443	 7,94506309909154E-02 
444	 7,94823076548269E-02 
445	 8,15562495163904E-02 
446	 0,083278001360074 
447	 8,32727206466298E-02 
448	 8,38773336469912E-02 
449	 8,51520495491774E-02 
450	 8,66319771176996E-02 
451	 8,79401430593398E-02 
452	 8,86745238854411E-02 
453	 8,81724377651838E-02 
454	 8,64996801763195E-02 
455	 8,38056261805319E-02 
456	 8,04178864396353E-02 
457	 0,078195828746966 
458	 8,17754301868848E-02 
459	 8,43112792785898E-02 
460	 8,33589136493477E-02 
461	 0,084071877080442 
462	 8,54450155625047E-02 
463	 8,55751222763162E-02 
464	 0,082825533067009 
465	 7,89149870078666E-02 
466	 8,09119854876963E-02 
467	 8,43942840259339E-02 
468	 0,085948392059578 
469	 8,40565437381829E-02 
470	 8,07292072464059E-02 
471	 8,01269082930018E-02 
472	 8,11985982503496E-02 
473	 8,33749943422268E-02 
474	 8,55415607770753E-02 
475	 0,086690202292458 
476	 8,59844759401636E-02 
477	 8,46156137346284E-02 
478	 8,33936790985172E-02 
479	 0,083712606797743 
480	 8,34788376311869E-02 
481	 8,21829036411871E-02 
482	 8,36683289163253E-02 
483	 8,57684620794118E-02 
484	 0,084771516550075 
485	 8,45683496854845E-02 
486	 8,53845445936869E-02 
487	 8,39099952318791E-02 
488	 8,26484988253855E-02 
489	 8,34210613338183E-02 
490	 8,41667763918342E-02 
491	 8,39015108914645E-02 
492	 8,09165868703959E-02 
493	 7,91334736135948E-02 
494	 7,97359172271831E-02 
495	 8,04157623521914E-02 
496	 8,09155292973307E-02 
497	 8,11671372631889E-02 
498	 8,22374320278881E-02 
499	 8,34257972736891E-02 
500	 8,17680575448652E-02 
501	 8,05550689214642E-02 
502	 8,14949029073209E-02 
503	 8,18811176987841E-02 
504	 8,21983830042324E-02 
505	 8,40402635663826E-02 
506	 8,47435876062512E-02 
507	 8,37565675701357E-02 
508	 8,23451951157348E-02 
509	 8,15404016782658E-02 
510	 8,21546594565259E-02 
511	 8,29585634609689E-02 
512	 8,37597866492184E-02 
513	 8,49259133665716E-02 
514	 8,55482539249961E-02 
515	 8,52309322761408E-02 
516	 8,43565659150634E-02 
517	 8,33340965123958E-02 
518	 8,25942473307419E-02 
519	 8,29930166365804E-02 
520	 8,44157355701818E-02 
521	 8,58494414760828E-02 
522	 8,61638021839121E-02 
523	 8,48025875279177E-02 
524	 8,48003097734658E-02 
525	 8,59224896491759E-02 
526	 8,66598814826159E-02 
527	 8,64244986157021E-02 
528	 8,53594135861996E-02 
529	 8,57818827194265E-02 
530	 8,66153862983329E-02 
531	 8,64410498124099E-02 
532	 8,49111195174809E-02 
533	 8,30447536915404E-02 
534	 0,084234657217003 
535	 8,54055749450504E-02 
536	 8,48609935500005E-02 
537	 8,47262676359717E-02 
538	 8,49381489474669E-02 
539	 8,48647015141828E-02 
540	 8,47953803578264E-02 
541	 8,47798571040126E-02 
542	 8,46860563679803E-02 
543	 8,45202445694761E-02 
544	 8,43194615685025E-02 
545	 8,46777234416878E-02 
546	 8,53396416288398E-02 
547	 8,52953939796223E-02 
548	 8,50818673298481E-02 
549	 8,50092382179153E-02 
550	 8,52994244681053E-02 
551	 8,57561190671877E-02 
552	 8,60437777032341E-02 
553	 8,61763334822162E-02 
554	 8,62262951018989E-02 
555	 8,65295925084298E-02 
556	 8,67979257936393E-02 
557	 8,67550839436636E-02 
558	 8,61113338281963E-02 
559	 8,52022686058515E-02 
560	 0,084922883922887 
561	 8,47923761322705E-02 
562	 8,46587722148913E-02 
563	 8,47981204967835E-02 
564	 8,47542679160222E-02 
565	 8,39069372694234E-02 
566	 8,39748115719508E-02 
567	 8,49493971449696E-02 
568	 8,51657017870873E-02 
569	 8,51314635264533E-02 
570	 8,52574720206931E-02 
571	 8,59545386710358E-02 
572	 0,086840594009568 
573	 8,69203850809112E-02 
574	 8,71514742233222E-02 
575	 8,78000870041451E-02 
576	 8,83914136127796E-02 
577	 8,88599807426301E-02 
578	 8,91873750043634E-02 
579	 9,00896588139539E-02 
580	 9,13982748677309E-02 
581	 0,092221803933855 
582	 9,22984557993022E-02 
583	 0,091646489566316 
584	 9,16646450690109E-02 
585	 9,23878038242528E-02 
586	 9,35650876993763E-02 
587	 0,094163794161589 
588	 9,41117221218349E-02 
589	 9,48563948522401E-02 
590	 9,55911729075982E-02 
591	 9,55497642352713E-02 
592	 9,57961706493275E-02 
593	 9,62607335577176E-02 
594	 9,62058563642691E-02 
595	 9,58705324691234E-02 
596	 9,55060310740126E-02 
597	 9,59818883748085E-02 
598	 9,67608191032272E-02 
599	 9,69387834694619E-02 
600	 9,64827924714012E-02 
601	 9,55817892779345E-02 
602	 0,094994570391596 
603	 0,094661111070499 
604	 9,45757535928894E-02 
605	 9,55724111879817E-02 
606	 9,66258892803914E-02 
607	 9,48543789198636E-02 
608	 9,35912785022527E-02 
609	 9,39271772888236E-02 
610	 0,094059044880073 
611	 9,39300772219417E-02 
612	 9,36620355371171E-02 
613	 9,31992040148254E-02 
614	 9,25959427553332E-02 
615	 0,091945751584427 
616	 9,16810979271504E-02 
617	 0,091968864579074 
618	 9,15304089067639E-02 
619	 9,09992061995986E-02 
620	 0,092065819646886 
621	 9,27406579621277E-02 
622	 9,24500074130936E-02 
623	 9,18736282222825E-02 
624	 9,14947424967797E-02 
625	 9,17548464125244E-02 
626	 9,23034658403628E-02 
627	 9,27854468251574E-02 
628	 9,24916846159621E-02 
629	 0,091975436910657 
630	 9,16491250862043E-02 
631	 9,21257907314862E-02 
632	 9,29941162047039E-02 
633	 9,35075987507092E-02 
634	 9,34912935269841E-02 
635	 9,31602648946068E-02 
636	 9,36124832185617E-02 
637	 9,45125245655579E-02 
638	 9,54826052892741E-02 
639	 0,09582145799243 
640	 9,58307298118954E-02 
641	 9,67053272163349E-02 
642	 0,097234674240213 
643	 9,71313803500672E-02 
644	 9,77959664952448E-02 
645	 9,86260823861793E-02 
646	 9,86900693112538E-02 
647	 9,84733702558959E-02 
648	 9,81445220813444E-02 
649	 9,78625854557194E-02 
650	 9,75121727823231E-02 
651	 9,70147232742638E-02 
652	 9,63607241662988E-02 
653	 9,57152380645706E-02 
654	 9,54360022484324E-02 
655	 0,095001870546789 
656	 9,42303762680784E-02 
657	 9,32446135906721E-02 
658	 9,21127297627291E-02 
659	 9,09058425988461E-02 
660	 8,96180364891757E-02 
661	 8,85643986284661E-02 
662	 8,86850187395456E-02 
663	 8,84351297740274E-02 
664	 8,72070682822599E-02 
665	 0,086830507266225 
666	 8,69203145586755E-02 
667	 0,086559399135885 
668	 8,59912426718427E-02 
669	 0,085353146315208 
670	 8,49760838632078E-02 
671	 8,46220113815284E-02 
672	 0,084145742179712 
673	 8,42651914581142E-02 
674	 8,47629952821983E-02 
675	 8,49384284798314E-02 
676	 8,45809284117448E-02 
677	 8,38430316598774E-02 
678	 8,41464287621918E-02 
679	 8,48451168145209E-02 
680	 8,50362340617642E-02 
681	 8,52322018096086E-02 
682	 8,55350627311913E-02 
683	 8,58639862737192E-02 
684	 8,64543911207017E-02 
685	 8,74333596186953E-02 
686	 8,86129484558464E-02 
687	 8,98163781434908E-02 
688	 9,07530619019284E-02 
689	 9,21929017337502E-02 
690	 9,43061377998388E-02 
691	 9,65983438056769E-02 
692	 9,92082966106735E-02 
693	 0,102292262684519 
694	 0,106021520139403 
695	 0,110280671356306 
696	 0,114677904074065 
697	 0,119597201763956 
698	 0,125071744326511 
699	 0,130319587581827 
700	 0,135753267040027 
701	 0,14199712008227 
702	 0,148272660564479 
703	 0,154310853906482 
704	 0,160100221013294 
705	 0,165456569902461 
706	 0,1703623941932 
707	 0,175732592228381 
708	 0,181211927846451 
709	 0,185875261465246 
710	 0,190297494663831 
711	 0,194609211090556 
712	 0,198586573601104 
713	 0,202226593558831 
714	 0,205558224023464 
715	 0,208982689719487 
716	 0,21235527428249 
717	 0,215101696039043 
718	 0,217584519503871 
719	 0,219964099781476 
720	 0,222203253064157 
721	 0,224350549637004 
722	 0,226469653512901 
723	 0,228489829743626 
724	 0,230300412746803 
725	 0,231620530474559 
726	 0,232748474581459 
727	 0,233898598476364 
728	 0,23513161249658 
729	 0,236342797102253 
730	 0,237327231992101 
731	 0,238241300670895 
732	 0,239105706560859 
733	 0,239790420786929 
734	 0,240493031505687 
735	 0,241350437824153 
736	 0,241705784719459 
737	 0,241929187672862 
738	 0,24333836817184 
739	 0,244198897366354 
740	 0,244047067425381 
741	 0,244326994341207 
742	 0,244877792927504 
743	 0,245372285199201 
744	 0,245735473697416 
745	 0,24604666931615 
746	 0,246704710519716 
747	 0,247036814003103 
748	 0,246816353667345 
749	 0,247205196684109 
750	 0,24785442272641 
751	 0,248011465317388 
752	 0,248256707408651 
753	 0,24869749822513 
754	 0,249147042351011 
755	 0,249537079699733 
756	 0,24982364099604 
757	 0,250066603348975 
758	 0,250402587776212 
759	 0,25110255166808 
760	 0,251657103161957 
761	 0,251901638821895 
762	 0,251951208152247 
763	 0,252137465971774 
764	 0,252737445057725 
765	 0,25321284566837 
766	 0,253462670093177 
767	 0,253494900478971 
768	 0,253633677259134 
769	 0,254006282202143 
770	 0,254454164559449 
771	 0,254773572380016 
772	 0,254756038832295 
773	 0,254929814424124 
774	 0,255339526890988 
775	 0,255752963933521 
776	 0,255967499490033 
777	 0,255921075224367 
778	 0,25607929867771 
779	 0,25626015404586 
780	 0,25611585904769 
781	 0,256095141947896 
782	 0,256285998506749 
783	 0,2565257115951 
784	 0,256837768864126 
785	 0,257173799390841 
786	 0,257013622492092 
787	 0,256762596339026 
788	 0,257263366847206 
789	 0,257758357916478 
790	 0,258008451483612 
791	 0,258112815166089 
792	 0,257971919431586 
793	 0,257607957207427 
794	 0,258131267031062 
795	 0,259019198490052 
796	 0,258741257142544 
797	 0,258573066523836 
798	 0,258863378428596 
799	 0,259084854459862 
800	 0,259420415546587 
801	 0,260022026728608 
802	 0,260291296611829 
803	 0,260276439831246 
804	 0,260386088993443 
805	 0,260574525697865 
806	 0,260827497999017 
807	 0,261056201704323 
808	 0,261244586089119 
809	 0,26138602244866 
810	 0,261455393839923 
811	 0,261662270448432 
812	 0,262731772626998 
813	 0,263029926962698 
814	 0,262155837568896 
815	 0,262288131100319 
816	 0,262929507785868 
817	 0,263259932691099 
818	 0,263581648899331 
819	 0,263908048891156 
820	 0,264150360293327 
821	 0,264376359647335 
822	 0,264603693709506 
823	 0,264715412042411 
824	 0,264785342054484 
825	 0,264924010943301 
826	 0,265595596158139 
827	 0,266491280052367 
828	 0,266319238744076 
829	 0,265998554944067 
830	 0,266035835797337 
831	 0,266311576048822 
832	 0,266670279165265 
833	 0,266909025662963 
834	 0,267379521290669 
835	 0,267942086894161 
836	 0,267815222554462 
837	 0,268032277069707 
838	 0,26899659229493 
839	 0,269335982336681 
840	 0,269158171470795 
841	 0,268844893878724 
842	 0,269109436862244 
843	 0,269761643061123 
844	 0,269482097863336 
845	 0,269122356760551 
846	 0,26914111463908 
847	 0,269166860834582 
848	 0,269325570138418 
849	 0,269837192673094 
850	 0,269837783953209 
851	 0,269408329958808 
852	 0,269602176130568 
853	 0,269733642636545 
854	 0,269488125486155 
855	 0,269359985869249 
856	 0,269436240064875 
857	 0,269752320858626 
858	 0,269742867278284 
859	 0,269454117751171 
860	 0,269510933404962 
861	 0,269667687485025 
862	 0,269812568348255 
863	 0,270054474953198 
864	 0,270309506660185 
865	 0,270463645005342 
866	 0,27076292742265 
867	 0,27122514695139 
868	 0,271803926466748 
869	 0,271958263429798 
870	 0,271558154672928 
871	 0,271507688647906 
872	 0,271897541968252 
873	 0,27269668508133 
874	 0,273455948208869 
875	 0,273891593950235 
876	 0,273498872105145 
877	 0,273505432165284 
878	 0,27431815041449 
879	 0,274814450370516 
880	 0,275294462383114 
881	 0,276135188759412 
882	 0,276613174613089 
883	 0,276644853676529 
884	 0,276281252450871 
885	 0,276594784883479 
886	 0,277719136849719 
887	 0,277967493030974 
888	 0,278097771047316 
889	 0,278834149976457 
890	 0,278897020133756 
891	 0,278464258619367 
892	 0,278360898399598 
893	 0,278726321280158 
894	 0,279427657760029 
895	 0,279612671423121 
896	 0,279460890901674 
897	 0,279171767140536 
898	 0,278950329022231 
899	 0,278912620457755 
900	 0,279192855320715 
901	 0,279070864241257 
902	 0,278592645756825 
903	 0,278813406102772 
904	 0,278898216392179 
905	 0,278467037672861 
906	 0,278835179211333 
907	 0,279448926372395 
908	 0,279316209110103 
909	 0,278739804901121 
910	 0,278289842780078 
911	 0,279620262301045 
912	 0,280221492048527 
913	 0,279203463029341 
914	 0,279007771668598 
915	 0,279443326928586 
916	 0,280023531152956 
917	 0,280292805848098 
918	 0,280323606728744 
919	 0,28058662214196 
920	 0,281054921435913 
921	 0,281512803831472 
922	 0,280911201300624 
923	 0,280578246648925 
924	 0,281524809033291 
925	 0,281874318415534 
926	 0,281838783696194 
927	 0,2823764512214 
928	 0,282419443399933 
929	 0,281991931009884 
930	 0,282302622839736 
931	 0,282569207203109 
932	 0,28245601180455 
933	 0,283051163756876 
934	 0,283750446666536 
935	 0,283668999902633 
936	 0,283957066246235 
937	 0,284398732723521 
938	 0,283584556435874 
939	 0,283303349613727 
940	 0,283890312356792 
941	 0,283208976115468 
942	 0,282447157539561 
943	 0,282709993133926 
944	 0,283012435793364 
945	 0,283253352239018 
946	 0,283605485399013 
947	 0,282956948622196 
948	 0,281437259314856 
949	 0,280551008297797 
950	 0,280586335212156 
951	 0,281418620112358 
952	 0,281141491396338 
953	 0,279987698379006 
954	 0,278586424079594 
955	 0,278753422645018 
956	 0,279867903506927 
957	 0,279306687585809 
958	 0,27835387825697 
959	 0,277673077761417 
960	 0,278142916697833 
961	 0,279176547362857 
962	 0,280131705013997 
963	 0,280188301416925 
964	 0,279239942864517 
965	 0,277364793326727 
966	 0,277800331746027 
967	 0,279987877124153 
968	 0,27961110260512 
969	 0,278258357588323 
970	 0,276978635229185 
971	 0,277910698029677 
972	 0,27793014214765 
973	 0,274656443487352 
974	 0,275505129485142 
975	 0,278630579448209 
976	 0,278510209771588 
977	 0,278449428036887 
978	 0,278710501097919 
979	 0,276989530458098 
980	 0,276768606819738 
981	 0,279364983899637 
982	 0,281589536382447 
983	 0,282499689011937 
984	 0,28165021847702 
985	 0,281625697059324 
986	 0,282480252651101 
987	 0,283277051948265 
988	 0,283622397533905 
989	 0,283720219278928 
990	 0,285129691088091 
991	 0,285009176783634 
992	 0,282711835509911 
993	 0,283852801509053 
994	 0,285970294406327 
995	 0,286084237820799 
996	 0,285863996666792 
997	 0,285573126192931 
998	 0,28517095434513 
999	 0,285288000411573 
1000	 0,286382285329647 
1001	 0,289521009547556 
1002	 0,291280094845851 
1003	 0,290137680996014 
1004	 0,288225170693022 
1005	 0,287665046024191 
1006	 0,290052550557756 
1007	 0,291545480943731 
1008	 0,292323868742765 
1009	 0,294032312258498 
1010	 0,293264545035371 
1011	 0,290533566924594 
1012	 0,290116108426852 
1013	 0,291776626820569 
1014	 0,29472240121647 
1015	 0,295547625858223 
1016	 0,294723517358312 
1017	 0,293319381853204 
1018	 0,295403957966972 
1019	 0,298156891882175 
1020	 0,296608820742699 
1021	 0,295815164557345 
1022	 0,296678582089009 
1023	 0,298510715615313 
1024	 0,297750769015612 
1025	 0,295049976971 
1026	 0,299705988092092 
1027	 0,303211853571175 
1028	 0,300468569089635 
1029	 0,298282681374276 
1030	 0,299688282111764 
1031	 0,306477482561235 
1032	 0,307233258094436 
1033	 0,303728522225559 
1034	 0,304176062822395 
1035	 0,308242189589476 
1036	 0,312636982587434 
1037	 0,304924350967907 
1038	 0,303018548932779 
1039	 0,311063715232396 
1040	 0,304660885913293 
1041	 0,296493870998839 
1042	 0,297739501006884 
1043	 0,299243887963963 
1044	 0,301292165063698 
1045	 0,305525712893499 
1046	 0,306624151813223 
1047	 0,307481591692967 
1048	 0,317757859595272 
1049	 0,322371120823554 
1050	 0,318728803595282 
1051	 0,315094570032815 
1052	 0,310607854174919 
1053	 0,306467875003768 
1054	 0,310026163349303 
1055	 0,316325000826821 
1056	 0,320502260061197 
1057	 0,326715266237554 
1058	 0,326255406010405 
1059	 0,307873072637575 
1060	 0,312656748146458 
1061	 0,329994965324489 
1062	 0,315931079996578 
1063	 0,30592411775017 
1064	 0,30810255760723 
1065	 0,311799809920424 
1066	 0,313338132782712 
1067	 0,310147592029966 
1068	 0,299221939642566 
1069	 0,297749706322192 
1070	 0,314660833588056 
1071	 0,311774294556993 
1072	 0,303615299023714 
1073	 0,310443231443322 
1074	 0,311119034704073 
1075	 0,308687122230517 
