Wavelength	SCORFF200820.asd
325	 5,71855955282153E-03 
326	 0,270801565517942 
327	 0,325780324974238 
328	 0,158123179111704 
329	 0,280048721703186 
330	 0,366008478166639 
331	 0,185801701282873 
332	 0,107808338658296 
333	 0,14667991863516 
334	 0,171659414630518 
335	 0,230007509542451 
336	 0,277492265880244 
337	 0,252661816534272 
338	 0,171482020794487 
339	 7,75700489230574E-02 
340	 7,94362462859499E-02 
341	 0,121462617181316 
342	 5,99169289707539E-02 
343	 0,092478470134545 
344	 0,212817342594829 
345	 0,197877679869186 
346	 0,129254999127009 
347	 9,22624115200311E-02 
348	 9,01517379199248E-02 
349	 0,108290148292907 
350	 0,112338532554071 
351	 0,119633532663884 
352	 0,129770501464841 
353	 0,120226915156047 
354	 9,48342959827404E-02 
355	 5,73585556487586E-02 
356	 5,26316585784694E-02 
357	 7,44741459857341E-02 
358	 7,47983250415968E-02 
359	 6,94775108442183E-02 
360	 6,21329833309527E-02 
361	 3,16176797325921E-02 
362	 9,26887376087495E-03 
363	 4,08833182435491E-02 
364	 7,80595400619934E-02 
365	 0,103460098408319 
366	 8,91415568561464E-02 
367	 7,26181492725901E-02 
368	 7,37370294209895E-02 
369	 5,01642211443621E-02 
370	 1,58668068735838E-02 
371	 8,8982613143063E-03 
372	 1,87075832994239E-02 
373	 4,04380717110092E-02 
374	 6,97376657775986E-02 
375	 7,79437075250301E-02 
376	 5,03669067296662E-02 
377	 4,47795763043254E-02 
378	 5,40420501036128E-02 
379	 0,041136316438636 
380	 2,82415585101987E-02 
381	 2,70299720211962E-02 
382	 6,08490227496873E-02 
383	 7,99866911818285E-02 
384	 4,46627722923241E-02 
385	 2,24967705558774E-02 
386	 2,60633298169265E-02 
387	 5,41992443071944E-02 
388	 6,90583563073611E-02 
389	 5,66586851740758E-02 
390	 3,86380645772542E-02 
391	 3,08193649167314E-02 
392	 5,03777608121156E-02 
393	 4,03389095010554E-02 
394	 9,93623416839901E-03 
395	 2,80430812841711E-02 
396	 3,96164346851115E-02 
397	 2,22860556251423E-02 
398	 2,13765621894705E-02 
399	 3,15084394591225E-02 
400	 3,81485004632596E-02 
401	 3,42074322276365E-02 
402	 2,22875224595302E-02 
403	 1,76163635612755E-02 
404	 2,33240409835791E-02 
405	 3,81622944613076E-02 
406	 0,03398637081008 
407	 0,020997246245449 
408	 2,76205715959151E-02 
409	 3,49693408767007E-02 
410	 3,75690504845464E-02 
411	 3,87747819114248E-02 
412	 3,46443625618518E-02 
413	 2,23886968562547E-02 
414	 2,07541522128773E-02 
415	 2,69843100131216E-02 
416	 2,52913034035556E-02 
417	 2,34375777862736E-02 
418	 2,40843276778555E-02 
419	 2,36558755322055E-02 
420	 2,41407220447034E-02 
421	 2,83747914974147E-02 
422	 2,98473293627246E-02 
423	 2,85467086419334E-02 
424	 3,02907467691752E-02 
425	 2,91184191347378E-02 
426	 2,26020231525537E-02 
427	 2,19762021460401E-02 
428	 2,53147980755611E-02 
429	 2,63448017240069E-02 
430	 2,83010595375822E-02 
431	 3,08874434779343E-02 
432	 2,99476409761787E-02 
433	 2,74283344156038E-02 
434	 2,54437842790089E-02 
435	 2,73669463677972E-02 
436	 3,08595069081551E-02 
437	 0,028697832726513 
438	 2,56496190963084E-02 
439	 0,024108298625965 
440	 2,56882560724093E-02 
441	 2,85303647748464E-02 
442	 3,01422019249362E-02 
443	 2,91341754611897E-02 
444	 2,69836944306549E-02 
445	 3,04036489781694E-02 
446	 3,10626892199004E-02 
447	 2,49462331303125E-02 
448	 2,45985154534291E-02 
449	 2,81956217386167E-02 
450	 2,92596529916492E-02 
451	 2,83792232045955E-02 
452	 2,66224945910436E-02 
453	 2,90050943431009E-02 
454	 3,12166473679662E-02 
455	 2,92709419743059E-02 
456	 2,75415959537448E-02 
457	 2,70327251931151E-02 
458	 2,80052786643462E-02 
459	 2,88596034614585E-02 
460	 2,89087495105955E-02 
461	 2,87733110116396E-02 
462	 2,92545894393005E-02 
463	 3,13555445108383E-02 
464	 2,99938723292859E-02 
465	 2,59039640207562E-02 
466	 2,57585526329635E-02 
467	 2,84191884070187E-02 
468	 0,032293197357346 
469	 3,10755233737469E-02 
470	 2,71026280883401E-02 
471	 2,67633138359418E-02 
472	 2,66516135632212E-02 
473	 2,64168856216372E-02 
474	 2,91049912586195E-02 
475	 3,18665541768516E-02 
476	 0,031827024637076 
477	 3,04539776160499E-02 
478	 0,029063421267103 
479	 3,04902142392456E-02 
480	 3,10509589766441E-02 
481	 0,029399642871398 
482	 2,90486537596087E-02 
483	 2,98801112703327E-02 
484	 3,11830349353371E-02 
485	 3,18170246877471E-02 
486	 3,14072919022918E-02 
487	 2,98723836478549E-02 
488	 2,93087873402233E-02 
489	 3,10993212688387E-02 
490	 3,24342709603367E-02 
491	 3,22392330506705E-02 
492	 2,89471351719651E-02 
493	 2,66825148259595E-02 
494	 2,68793166461629E-02 
495	 2,77829246918289E-02 
496	 2,89570751971438E-02 
497	 3,00649227645741E-02 
498	 3,10847504023593E-02 
499	 3,16972191870895E-02 
500	 3,09829306319322E-02 
501	 3,05312904509858E-02 
502	 3,11032444789144E-02 
503	 0,030713629322531 
504	 3,02562375004522E-02 
505	 3,17799600848988E-02 
506	 3,26708733764513E-02 
507	 3,23152333385226E-02 
508	 3,18326179958523E-02 
509	 0,031158881781316 
510	 3,03022672902165E-02 
511	 3,11618158059535E-02 
512	 3,28351598346585E-02 
513	 3,21614399759131E-02 
514	 3,11923812281501E-02 
515	 3,08546545652018E-02 
516	 3,09249622152022E-02 
517	 3,13649486046705E-02 
518	 3,21509189772892E-02 
519	 3,25047944007744E-02 
520	 3,22754883921648E-02 
521	 3,17802643514005E-02 
522	 3,12766533683274E-02 
523	 3,10565139824472E-02 
524	 3,20527822076513E-02 
525	 3,37883470562168E-02 
526	 3,52687698610207E-02 
527	 3,49355394390106E-02 
528	 3,29134922282854E-02 
529	 3,32207822387084E-02 
530	 3,43808996177951E-02 
531	 3,43658537422196E-02 
532	 3,40499017689868E-02 
533	 3,37370090108691E-02 
534	 3,37390743580891E-02 
535	 3,41660561154162E-02 
536	 0,034901280838304 
537	 0,034339155630543 
538	 3,34761098142763E-02 
539	 3,45689878080954E-02 
540	 3,52429173140022E-02 
541	 3,49997302438656E-02 
542	 3,52717876218346E-02 
543	 3,54557355904007E-02 
544	 3,49555358132703E-02 
545	 3,50706234541275E-02 
546	 3,57703344948457E-02 
547	 3,63350428358278E-02 
548	 0,036270261620467 
549	 3,54722737879672E-02 
550	 3,51276473765748E-02 
551	 3,54836946540048E-02 
552	 3,67498650682635E-02 
553	 3,67698685219041E-02 
554	 3,56778909864293E-02 
555	 3,68470483449389E-02 
556	 3,79984492570848E-02 
557	 0,037269645073495 
558	 3,67869875799107E-02 
559	 0,036757294277724 
560	 3,66704159718419E-02 
561	 3,67795272993422E-02 
562	 0,037117965163951 
563	 3,74857035028939E-02 
564	 3,73323389481421E-02 
565	 3,59705196462761E-02 
566	 3,59257018427564E-02 
567	 3,72306631405335E-02 
568	 3,74726635116318E-02 
569	 3,76725035008522E-02 
570	 3,84332155356768E-02 
571	 3,83476838067192E-02 
572	 3,78479215741759E-02 
573	 3,82525794791794E-02 
574	 3,91552064285145E-02 
575	 4,01811036636088E-02 
576	 4,02192766226236E-02 
577	 3,95780136505781E-02 
578	 3,87381724237951E-02 
579	 3,89784368691002E-02 
580	 4,01614447497617E-02 
581	 4,09858287774675E-02 
582	 4,08852732692033E-02 
583	 3,97631949702455E-02 
584	 3,97673831082293E-02 
585	 4,06972725057054E-02 
586	 4,17686820291872E-02 
587	 4,16482814318656E-02 
588	 4,05431187129662E-02 
589	 4,15473576749936E-02 
590	 4,28185492066267E-02 
591	 0,04254836653862 
592	 4,19896055271803E-02 
593	 4,15303335795125E-02 
594	 4,14642900227315E-02 
595	 4,17434477543428E-02 
596	 0,042244810975687 
597	 0,042302781149995 
598	 4,22308626446641E-02 
599	 4,26263052771652E-02 
600	 4,25965240241955E-02 
601	 4,21925821516079E-02 
602	 4,26486366275506E-02 
603	 4,29499456833362E-02 
604	 4,23672150640539E-02 
605	 4,23871620539534E-02 
606	 4,27703375624725E-02 
607	 4,23014423446517E-02 
608	 4,17778390350985E-02 
609	 4,15522345788857E-02 
610	 4,18021147387282E-02 
611	 4,21720733427362E-02 
612	 4,22100314625886E-02 
613	 4,23961601113274E-02 
614	 4,26871596287088E-02 
615	 4,26274182611446E-02 
616	 4,22637715433771E-02 
617	 4,16872996448535E-02 
618	 4,12774393960047E-02 
619	 4,13180773343208E-02 
620	 4,23133133184259E-02 
621	 4,27244598208495E-02 
622	 4,22280749407477E-02 
623	 4,21239536113292E-02 
624	 4,21017576082002E-02 
625	 4,17941499232298E-02 
626	 4,20922642871018E-02 
627	 4,27147124971319E-02 
628	 4,22778671077198E-02 
629	 4,19454091492468E-02 
630	 4,22565407679469E-02 
631	 4,24870955796569E-02 
632	 4,25207589295785E-02 
633	 4,23069190219397E-02 
634	 4,21412628761618E-02 
635	 4,22182980270061E-02 
636	 4,28597523400036E-02 
637	 4,35550026345275E-02 
638	 4,38689940407817E-02 
639	 4,42031672692188E-02 
640	 4,44432186668644E-02 
641	 4,40427427174549E-02 
642	 4,40099117563326E-02 
643	 4,46175745505988E-02 
644	 4,46718047816168E-02 
645	 4,47311787266583E-02 
646	 4,56605839542813E-02 
647	 4,56428555445291E-02 
648	 4,47047979108187E-02 
649	 4,45586675765234E-02 
650	 4,47479049385763E-02 
651	 4,49111665044417E-02 
652	 4,46503846656868E-02 
653	 4,42062897017241E-02 
654	 4,42226376716688E-02 
655	 4,41274782375538E-02 
656	 4,38391223545527E-02 
657	 0,044018060691847 
658	 4,38493531895372E-02 
659	 4,25289218870628E-02 
660	 4,20691882480972E-02 
661	 4,24159665841894E-02 
662	 4,21169429185303E-02 
663	 4,15613556096899E-02 
664	 4,10229912293652E-02 
665	 4,11275959658022E-02 
666	 4,14727259147935E-02 
667	 4,13008372739302E-02 
668	 4,15192091658807E-02 
669	 4,20689759920168E-02 
670	 4,17380953710291E-02 
671	 4,12602207915345E-02 
672	 4,12437773253924E-02 
673	 4,13409601551247E-02 
674	 0,041445517683603 
675	 4,14434731915811E-02 
676	 4,13848070145955E-02 
677	 4,13776451439116E-02 
678	 4,19058175879217E-02 
679	 4,24897034798205E-02 
680	 4,25281173051754E-02 
681	 4,23828598609363E-02 
682	 4,22554596545252E-02 
683	 4,24731001477721E-02 
684	 4,27120726575912E-02 
685	 4,28703891903099E-02 
686	 4,38181933312829E-02 
687	 4,49283164204847E-02 
688	 4,48735589060504E-02 
689	 4,52674874054811E-02 
690	 4,63470300578341E-02 
691	 4,68566922345863E-02 
692	 4,72146623997446E-02 
693	 4,78557184743398E-02 
694	 4,88200449365241E-02 
695	 5,01310248097996E-02 
696	 5,17791158379959E-02 
697	 5,37066322933847E-02 
698	 5,57801759236369E-02 
699	 5,75209050418155E-02 
700	 5,91205271672064E-02 
701	 6,08892630805377E-02 
702	 6,26915826166688E-02 
703	 6,45922157970519E-02 
704	 6,68892108900342E-02 
705	 6,92684894746636E-02 
706	 0,071457302833163 
707	 7,30539891284694E-02 
708	 7,43833786075249E-02 
709	 7,61292194155457E-02 
710	 7,79958829754639E-02 
711	 7,97705021582533E-02 
712	 8,08873056093934E-02 
713	 8,19476247418036E-02 
714	 0,083506302296337 
715	 8,50035763627581E-02 
716	 8,62365843408007E-02 
717	 8,69518934734838E-02 
718	 8,77149246271022E-02 
719	 8,87421629246747E-02 
720	 8,96354823835549E-02 
721	 9,05430633506767E-02 
722	 9,16992380091742E-02 
723	 9,24364636174475E-02 
724	 9,27974815387934E-02 
725	 9,35243270435421E-02 
726	 9,41551521615574E-02 
727	 9,44366681171653E-02 
728	 9,47600799302089E-02 
729	 9,51365938065501E-02 
730	 9,54776693653588E-02 
731	 9,58744463923522E-02 
732	 9,63367498362726E-02 
733	 9,67874397227927E-02 
734	 9,72698965963904E-02 
735	 0,097774438907318 
736	 9,75217686841909E-02 
737	 9,70944252801118E-02 
738	 9,83786403657959E-02 
739	 0,099145835447563 
740	 9,87505041985993E-02 
741	 9,87513120811646E-02 
742	 9,90841170875459E-02 
743	 0,099517801920005 
744	 9,96761775235117E-02 
745	 9,96183661296662E-02 
746	 9,98620480463243E-02 
747	 0,100041219885077 
748	 9,99949383850986E-02 
749	 0,100014725445811 
750	 0,100159441368391 
751	 0,100459349743855 
752	 0,100791949002855 
753	 0,101131789825497 
754	 0,101549241485746 
755	 0,102018447428045 
756	 0,102451234885674 
757	 0,102189229690861 
758	 0,101704997242756 
759	 0,102140855415177 
760	 0,102673951391928 
761	 0,102972013076041 
762	 0,102791006968512 
763	 0,102757396134234 
764	 0,103418290682637 
765	 0,103702303422857 
766	 0,103604693954486 
767	 0,103623530497329 
768	 0,103930488887331 
769	 0,104479024522986 
770	 0,104430330999237 
771	 0,104311755848309 
772	 0,104810783326443 
773	 0,105203004689789 
774	 0,105390100479457 
775	 0,105644861218058 
776	 0,105687566333402 
777	 0,105444452939712 
778	 0,105422338018044 
779	 0,10559902564556 
780	 0,105850468147006 
781	 0,10596152365947 
782	 0,105960529193388 
783	 0,106220806509074 
784	 0,106402283152234 
785	 0,10634004623655 
786	 0,106685923659989 
787	 0,107129794120369 
788	 0,106946108020275 
789	 0,106996578714341 
790	 0,107423674207158 
791	 0,107725689189341 
792	 0,107713312975178 
793	 0,1073202352683 
794	 0,107393101673265 
795	 0,107838703173175 
796	 0,108152653137461 
797	 0,108310522677766 
798	 0,108324771836766 
799	 0,108424961102568 
800	 0,108556725672599 
801	 0,10865215273678 
802	 0,10862899822402 
803	 0,108584927047508 
804	 0,10874771612615 
805	 0,109270590473765 
806	 0,110016556805171 
807	 0,109958936888454 
808	 0,109663467646323 
809	 0,109806678264085 
810	 0,110000230556561 
811	 0,110124638741769 
812	 0,110019237439982 
813	 0,110092478240691 
814	 0,110445024221087 
815	 0,110509234888135 
816	 0,11053153186848 
817	 0,110849962031487 
818	 0,110999939173097 
819	 0,111008148787444 
820	 0,111306672192646 
821	 0,111429270278698 
822	 0,111252144511673 
823	 0,111513937641708 
824	 0,11181447350661 
825	 0,111563193628522 
826	 0,111727908827672 
827	 0,112243132454072 
828	 0,112133860316759 
829	 0,112066145007238 
830	 0,112330906338836 
831	 0,112419350084755 
832	 0,112414216637767 
833	 0,112497702858419 
834	 0,11303661252194 
835	 0,113752932143867 
836	 0,113432030528484 
837	 0,113172640932515 
838	 0,113570549531318 
839	 0,11431576512981 
840	 0,114657707514281 
841	 0,113630685194388 
842	 0,113257732650282 
843	 0,113662982580338 
844	 0,113297247326962 
845	 0,113325741572564 
846	 0,114184340146373 
847	 0,114260049891137 
848	 0,113882316880507 
849	 0,113773761106878 
850	 0,114232117816606 
851	 0,114913429567624 
852	 0,114402455111162 
853	 0,113789470620175 
854	 0,113695409091978 
855	 0,113916764667396 
856	 0,114235554788893 
857	 0,114380641850874 
858	 0,11444864464899 
859	 0,114378464574283 
860	 0,113870919748378 
861	 0,11362677792914 
862	 0,11393142634284 
863	 0,11396548753487 
864	 0,11389473954791 
865	 0,114047566128266 
866	 0,114521375797894 
867	 0,115088488072903 
868	 0,11503034146927 
869	 0,11475588112275 
870	 0,114553809408631 
871	 0,114828438897282 
872	 0,115348384524944 
873	 0,115767081826841 
874	 0,115629095174192 
875	 0,115188689600398 
876	 0,115447722632551 
877	 0,11589916684852 
878	 0,116356289566459 
879	 0,117096001777498 
880	 0,117488733491852 
881	 0,116910282762337 
882	 0,116605538116104 
883	 0,116724691862492 
884	 0,116914481455638 
885	 0,117152758297356 
886	 0,117441998514255 
887	 0,117991969863223 
888	 0,118441741181957 
889	 0,118449408065113 
890	 0,118196579792259 
891	 0,117871002466571 
892	 0,117753644826706 
893	 0,117854633156064 
894	 0,11821320490859 
895	 0,119054991937078 
896	 0,119377454692345 
897	 0,118492529789066 
898	 0,117650914950064 
899	 0,117361559705821 
900	 0,118129994751181 
901	 0,118509495011192 
902	 0,118251654445684 
903	 0,11819646646869 
904	 0,118469995764408 
905	 0,119000290160494 
906	 0,118593245094926 
907	 0,118029112650804 
908	 0,11860134235549 
909	 0,118324557890757 
910	 0,117555927987766 
911	 0,119047936245957 
912	 0,120093634273562 
913	 0,11959152258645 
914	 0,119311136402586 
915	 0,119332094864596 
916	 0,119539659236272 
917	 0,119187106614022 
918	 0,118631893186807 
919	 0,119181538797175 
920	 0,119714440002083 
921	 0,119861163462104 
922	 0,119948680141947 
923	 0,119779267716803 
924	 0,119342725141754 
925	 0,120362066613084 
926	 0,121687936558668 
927	 0,120801924381097 
928	 0,120126116125007 
929	 0,120198760100906 
930	 0,120217306294487 
931	 0,120531203074308 
932	 0,121165173955545 
933	 0,120880759262792 
934	 0,120490517740645 
935	 0,121193018662632 
936	 0,122946564541961 
937	 0,12461986956695 
938	 0,123170903563478 
939	 0,121729031982725 
940	 0,121565142198309 
941	 0,122234011951234 
942	 0,122648062319532 
943	 0,121975866863232 
944	 0,121955725818964 
945	 0,122373221348117 
946	 0,122261394617509 
947	 0,12272379199645 
948	 0,123457586062404 
949	 0,12227967801743 
950	 0,121037421826452 
951	 0,120878357852302 
952	 0,121690313957931 
953	 0,122032022633139 
954	 0,120360495940151 
955	 0,120765854105843 
956	 0,122534806685993 
957	 0,121572290622891 
958	 0,120482370529002 
959	 0,120092327698041 
960	 0,119727675346624 
961	 0,120469517330309 
962	 0,122755326978084 
963	 0,12326934993127 
964	 0,122543991001843 
965	 0,122158991386856 
966	 0,121950519340237 
967	 0,122054909375173 
968	 0,123154072569866 
969	 0,122025572277752 
970	 0,118583626719824 
971	 0,12034462609631 
972	 0,122593686861753 
973	 0,120980994174241 
974	 0,121376783218621 
975	 0,122732117754978 
976	 0,121484787648936 
977	 0,120964007821382 
978	 0,121615261594394 
979	 0,121689012620126 
980	 0,1216437968071 
981	 0,121976650177223 
982	 0,1246018037867 
983	 0,125845162131795 
984	 0,122372644868457 
985	 0,120989122845715 
986	 0,122250602149017 
987	 0,124628963398613 
988	 0,125925580659801 
989	 0,125756650202576 
990	 0,125862426131794 
991	 0,125316547663663 
992	 0,124142837665233 
993	 0,125324263379054 
994	 0,126622672013828 
995	 0,125523542291918 
996	 0,122882024192042 
997	 0,121112828399818 
998	 0,124411476688161 
999	 0,127981387507866 
1000	 0,129930270165565 
1001	 0,129027534080824 
1002	 0,128739736737935 
1003	 0,130134774536407 
1004	 0,128044651516437 
1005	 0,125568533515725 
1006	 0,126063795314289 
1007	 0,127842116576262 
1008	 0,130112030386734 
1009	 0,132071288570309 
1010	 0,130829324812633 
1011	 0,126683693872996 
1012	 0,122466906862566 
1013	 0,12335129503303 
1014	 0,129779282389911 
1015	 0,130934033363318 
1016	 0,130023100155656 
1017	 0,13028017212419 
1018	 0,130820387853582 
1019	 0,130790146081472 
1020	 0,129093879000175 
1021	 0,129361661165151 
1022	 0,131502435259943 
1023	 0,132954536862046 
1024	 0,132309019613904 
1025	 0,130576996110865 
1026	 0,135393386151517 
1027	 0,137510880088893 
1028	 0,132372734068258 
1029	 0,134536940400965 
1030	 0,13778383134006 
1031	 0,133693755757872 
1032	 0,131535849159525 
1033	 0,132974475767875 
1034	 0,137488595688571 
1035	 0,143540678795392 
1036	 0,14778794100609 
1037	 0,140818670215029 
1038	 0,137157255495643 
1039	 0,1409173292591 
1040	 0,134440585398965 
1041	 0,13046006086775 
1042	 0,138445391305694 
1043	 0,139363089068577 
1044	 0,137413698613853 
1045	 0,141514747677971 
1046	 0,142167639495971 
1047	 0,140623054565084 
1048	 0,144627164686094 
1049	 0,14704883009509 
1050	 0,144974346990873 
1051	 0,134618650329604 
1052	 0,13112937064827 
1053	 0,139669055937391 
1054	 0,143082315185418 
1055	 0,144648136144557 
1056	 0,147946958397865 
1057	 0,151840934519946 
1058	 0,15130789621051 
1059	 0,140234159230555 
1060	 0,137281662616623 
1061	 0,142788188647292 
1062	 0,147700154395799 
1063	 0,15182488608353 
1064	 0,152906501096634 
1065	 0,144017062136069 
1066	 0,145940312917185 
1067	 0,159519683626597 
1068	 0,135751127126736 
1069	 0,119542153289793 
1070	 0,14272364348806 
1071	 0,143830698218268 
1072	 0,139784910381891 
1073	 0,155044300231317 
1074	 0,152496229820803 
1075	 0,138767595009866 
