Wavelength	SCORFF200446.asd
325	 0,208441137843051 
326	 0,288264333638304 
327	 0,237264263758847 
328	 8,83256463180188E-02 
329	 0,119611781322483 
330	 0,180529603788972 
331	 0,159239574302336 
332	 0,123160555786174 
333	 0,103502225741107 
334	 0,12175982743873 
335	 0,141639302012468 
336	 0,143637782982045 
337	 0,166371425069911 
338	 0,125430665640081 
339	-0,055308469407205 
340	-3,66962369030864E-02 
341	 0,08211508651159 
342	 2,68383325256559E-02 
343	 4,26627312733307E-02 
344	 0,141367572510132 
345	 8,60907976017442E-02 
346	 2,99196959098406E-02 
347	 0,123195632608643 
348	 0,131575039412127 
349	 6,99685021266812E-02 
350	 6,00361091464096E-02 
351	 7,03165970890218E-02 
352	 8,32602744409468E-02 
353	 7,83863468187665E-02 
354	 5,19769453949337E-02 
355	-1,38445738834579E-03 
356	 1,04691406589832E-02 
357	 6,70580833977293E-02 
358	 6,05142767199007E-02 
359	 4,82233316516804E-02 
360	 5,07182630007963E-02 
361	 3,53509482218064E-02 
362	 2,16516330006356E-02 
363	 4,21791534631055E-02 
364	 0,038315804171546 
365	 1,49383980494941E-02 
366	 3,81391334148597E-02 
367	 5,50664749342167E-02 
368	 3,71627447757145E-02 
369	 2,91378135708693E-02 
370	 2,94072812862521E-02 
371	 2,47542887664427E-02 
372	 2,04670725221807E-02 
373	 1,96675493082247E-02 
374	 3,06333391532041E-02 
375	 3,93280255677543E-02 
376	 3,73768916428466E-02 
377	 4,46746200206104E-02 
378	 5,22641854781696E-02 
379	 3,60584906342511E-02 
380	 1,53168938018909E-02 
381	 4,34224665268565E-03 
382	 3,87331752228318E-02 
383	 6,66890536512696E-02 
384	 4,50348991596575E-02 
385	 2,75219073025079E-02 
386	 2,35266303144933E-02 
387	 2,83158462076019E-02 
388	 3,47540799960655E-02 
389	 3,78815989532695E-02 
390	 3,42963732125019E-02 
391	 2,82966376869676E-02 
392	 2,58036259125788E-02 
393	 1,17565967798561E-02 
394	-4,21534596166008E-03 
395	 0,018936067119068 
396	 3,39939244146716E-02 
397	 2,10997809228774E-02 
398	 1,25911264427868E-02 
399	 1,46290522967225E-02 
400	 3,07345149239205E-02 
401	 3,27994146768232E-02 
402	 2,05001326004275E-02 
403	 2,15208149399354E-02 
404	 2,96756639450588E-02 
405	 3,82345339625781E-02 
406	 3,03851635613079E-02 
407	 1,66499735059974E-02 
408	 2,29429132824075E-02 
409	 3,04388434757755E-02 
410	 3,28063808506197E-02 
411	 2,98600567551498E-02 
412	 2,31298027674066E-02 
413	 1,46872287591188E-02 
414	 1,75630654041231E-02 
415	 2,64165991688846E-02 
416	 2,22955539697806E-02 
417	 1,84031152056773E-02 
418	 1,93729201042511E-02 
419	 1,80676965982982E-02 
420	 1,66683138981785E-02 
421	 1,86278817612528E-02 
422	 2,13222827011535E-02 
423	 2,31519360095429E-02 
424	 0,021711392907623 
425	 1,87719473296276E-02 
426	 1,59028651823512E-02 
427	 1,70794361142033E-02 
428	 1,91521835374395E-02 
429	 1,52666345315974E-02 
430	 1,42681275852368E-02 
431	 1,79899847518631E-02 
432	 2,28533123634361E-02 
433	 2,50725049871297E-02 
434	 2,19083838031236E-02 
435	 2,18113337636428E-02 
436	 0,02326415048878 
437	 1,78231095460674E-02 
438	 1,44482524294313E-02 
439	 1,61367789862862E-02 
440	 1,68905774489884E-02 
441	 1,68923612364508E-02 
442	 1,70761457743627E-02 
443	 1,82220359945478E-02 
444	 1,96262200846254E-02 
445	 1,79703710269157E-02 
446	 1,78746215601992E-02 
447	 2,14267745597798E-02 
448	 2,02181128353915E-02 
449	 1,68653124895762E-02 
450	 1,82143610481897E-02 
451	 2,08532393265327E-02 
452	 2,30354927923526E-02 
453	 2,17587175315067E-02 
454	 2,01042358829514E-02 
455	 2,08344347625479E-02 
456	 1,88886082978871E-02 
457	 1,58819349502246E-02 
458	 1,86000964253607E-02 
459	 2,11740647732037E-02 
460	 2,12112559568351E-02 
461	 2,05129428646659E-02 
462	 2,03292130574968E-02 
463	 0,022118232443606 
464	 1,99248475030302E-02 
465	 1,49822743417338E-02 
466	 1,68373912898045E-02 
467	 0,019524884186089 
468	 1,90727889318477E-02 
469	 1,83755495044784E-02 
470	 0,01778326738281 
471	 1,71635963917979E-02 
472	 1,68629031620874E-02 
473	 1,70512484683051E-02 
474	 1,78088340135101E-02 
475	 1,88065922058978E-02 
476	 1,96677556434379E-02 
477	 1,92499719608795E-02 
478	 1,80913202235213E-02 
479	 1,83434189012558E-02 
480	 1,84780359203733E-02 
481	 1,77825929166268E-02 
482	 1,62092525331503E-02 
483	 1,56698370802183E-02 
484	 0,018962300899472 
485	 2,05748552522746E-02 
486	 1,94071147264913E-02 
487	 1,74055127303723E-02 
488	 1,67432790246118E-02 
489	 1,87772091831251E-02 
490	 1,95862070537933E-02 
491	 1,90850061213276E-02 
492	 1,88404084354526E-02 
493	 1,73737038864393E-02 
494	 1,48538120893557E-02 
495	 0,014395310862879 
496	 0,015193938613774 
497	 1,60503136466959E-02 
498	 1,67768916483433E-02 
499	 1,73828917964281E-02 
500	 1,85164977424929E-02 
501	 0,018526909109436 
502	 1,68281897071565E-02 
503	 1,66747386446224E-02 
504	 0,017484380410011 
505	 1,74375138594101E-02 
506	 1,78601865138619E-02 
507	 1,86566808252939E-02 
508	 1,80207332163138E-02 
509	 1,66402852118791E-02 
510	 1,53326821871129E-02 
511	 1,58788068555616E-02 
512	 1,76235600828171E-02 
513	 1,80712504238782E-02 
514	 1,82337996772284E-02 
515	 1,83572364715154E-02 
516	 1,73702969623247E-02 
517	 1,63326525440633E-02 
518	 1,68247463258262E-02 
519	 0,01672452284251 
520	 0,016124608861567 
521	 1,75618390725765E-02 
522	 1,85827924025374E-02 
523	 1,75655981916964E-02 
524	 1,73651482966342E-02 
525	 1,79117657296246E-02 
526	 1,80428466293163E-02 
527	 0,017872332991776 
528	 1,75836118960292E-02 
529	 0,018107419317306 
530	 1,88722372270203E-02 
531	 1,91519626045501E-02 
532	 1,87138729931188E-02 
533	 0,017760703482305 
534	 1,69401882168127E-02 
535	 1,68400610312725E-02 
536	 1,76311715501664E-02 
537	 1,75172023170165E-02 
538	 1,69820938938232E-02 
539	 1,73901133376507E-02 
540	 1,78103744943861E-02 
541	 1,79076986784239E-02 
542	 1,75690921598208E-02 
543	 1,70768900915015E-02 
544	 1,67252192541005E-02 
545	 1,66645826164362E-02 
546	 1,68744250168201E-02 
547	 1,73008277440875E-02 
548	 1,71972365706505E-02 
549	 1,63972526543715E-02 
550	 1,65699866275089E-02 
551	 1,72344887178462E-02 
552	 0,017330686510601 
553	 1,78088840259055E-02 
554	 1,86190991743052E-02 
555	 1,86205360277506E-02 
556	 1,83096396767547E-02 
557	 1,81300333324504E-02 
558	 1,79526756107236E-02 
559	 1,77827910987337E-02 
560	 1,76644513076496E-02 
561	 1,74528538547892E-02 
562	 1,71506998550907E-02 
563	 1,72001912921729E-02 
564	 1,71418286156616E-02 
565	 1,63156522537998E-02 
566	 1,66981498234869E-02 
567	 1,80898168685662E-02 
568	 1,79874774781629E-02 
569	 1,74955657763041E-02 
570	 1,74123182692253E-02 
571	 1,74945759758027E-02 
572	 1,77109358862471E-02 
573	 1,80697693968473E-02 
574	 1,82298758573885E-02 
575	 1,81949521454467E-02 
576	 1,88080157843165E-02 
577	 0,019240867660968 
578	 1,85440965333293E-02 
579	 1,82997592350085E-02 
580	 0,018572679954816 
581	 1,83135790175085E-02 
582	 0,018079486385322 
583	 1,82064106417862E-02 
584	 1,87421630544418E-02 
585	 1,93028798218598E-02 
586	 1,92570811343019E-02 
587	 1,88251187357356E-02 
588	 1,82790964946314E-02 
589	 1,84063279179803E-02 
590	 1,88039312318643E-02 
591	 1,90578309644959E-02 
592	 1,93767159398561E-02 
593	 1,95694121878348E-02 
594	 1,89840608260504E-02 
595	 1,86753211526994E-02 
596	 1,90567682645942E-02 
597	 1,92042809827413E-02 
598	 1,91482026708248E-02 
599	 1,90918219357804E-02 
600	 1,89806744300496E-02 
601	 1,88426599017927E-02 
602	 1,87358933732954E-02 
603	 1,88912440467114E-02 
604	 1,94255407303659E-02 
605	 1,95286372757147E-02 
606	 1,92950305078501E-02 
607	 1,94094233537363E-02 
608	 1,89976895009691E-02 
609	 1,80003471663561E-02 
610	 1,79661055499256E-02 
611	 1,83701653289981E-02 
612	 0,01840327513065 
613	 1,80445554951282E-02 
614	 1,75674627845489E-02 
615	 1,79469284305723E-02 
616	 1,84351402700816E-02 
617	 1,84882002847473E-02 
618	 1,77427470121717E-02 
619	 1,71340875569022E-02 
620	 1,87131899871754E-02 
621	 1,93890649349306E-02 
622	 1,85243860250687E-02 
623	 1,84827722861813E-02 
624	 0,018659963247603 
625	 1,83227479959684E-02 
626	 1,82756733347159E-02 
627	 0,018550937131088 
628	 1,87936015131615E-02 
629	 1,88697868005738E-02 
630	 0,018691857514343 
631	 1,83038025074504E-02 
632	 1,78845932330783E-02 
633	 1,76429046194749E-02 
634	 1,82744709012276E-02 
635	 0,019540732003374 
636	 1,96869172573131E-02 
637	 1,93456612955321E-02 
638	 1,91233414466012E-02 
639	 1,89878135026547E-02 
640	 1,90251782752827E-02 
641	 0,019421856343133 
642	 1,97444665951398E-02 
643	 1,98327320244441E-02 
644	 1,99690789364046E-02 
645	 2,01790310033396E-02 
646	 2,04645682270715E-02 
647	 0,020414323488106 
648	 2,00023334470606E-02 
649	 1,94219309237311E-02 
650	 1,93600166944028E-02 
651	 2,01189943065503E-02 
652	 1,99257541174109E-02 
653	 1,92053976503803E-02 
654	 0,01936479057425 
655	 1,97217645657953E-02 
656	 1,99855528965923E-02 
657	 1,98562043453218E-02 
658	 1,95372635770191E-02 
659	 1,92597930562039E-02 
660	 1,87535247892807E-02 
661	 1,82467211378403E-02 
662	 1,86201730277194E-02 
663	 1,84790570755733E-02 
664	 0,01736905354144 
665	 1,74615469501228E-02 
666	 1,82498342845357E-02 
667	 1,85779394112111E-02 
668	 1,84538903382954E-02 
669	 1,80625978971195E-02 
670	 1,82943890198731E-02 
671	 1,84722291705797E-02 
672	 1,80896078545296E-02 
673	 1,80571772268614E-02 
674	 1,82912502917929E-02 
675	 1,82204612321138E-02 
676	 1,80773801138939E-02 
677	 1,79682093313323E-02 
678	 1,79919236038232E-02 
679	 1,82261035163097E-02 
680	 1,87392587217755E-02 
681	 1,89350903221216E-02 
682	 1,88390830754338E-02 
683	 1,90823749157976E-02 
684	 1,91379050277387E-02 
685	 1,88049233511856E-02 
686	 1,90740325294448E-02 
687	 1,97038650049547E-02 
688	 2,00609810997525E-02 
689	 2,01291585398792E-02 
690	 2,00125345308801E-02 
691	 2,02242872411014E-02 
692	 0,020647493844885 
693	 2,11744313405153E-02 
694	 2,21237515953157E-02 
695	 2,33486681473499E-02 
696	 2,43208298529696E-02 
697	 2,55059089175912E-02 
698	 2,70541256346276E-02 
699	 2,86003822797257E-02 
700	 3,03289607436436E-02 
701	 3,25164364815825E-02 
702	 3,45390407629316E-02 
703	 3,64269321645409E-02 
704	 3,88916050597693E-02 
705	 4,13401226556106E-02 
706	 4,33890052435422E-02 
707	 4,52444100278234E-02 
708	 4,70842426740746E-02 
709	 4,91722914802818E-02 
710	 5,12310333985188E-02 
711	 5,31529233762158E-02 
712	 5,48786161701291E-02 
713	 5,65600746167927E-02 
714	 5,83294458724077E-02 
715	 6,00162827067224E-02 
716	 6,14514681020082E-02 
717	 0,062212228533693 
718	 6,33213917720935E-02 
719	 6,50136284982662E-02 
720	 6,57276858957633E-02 
721	 6,62983047369164E-02 
722	 6,79590201685148E-02 
723	 6,91569792136241E-02 
724	 6,96832779358874E-02 
725	 7,01758991422165E-02 
726	 7,07231540713886E-02 
727	 0,071368945462829 
728	 7,18464484629187E-02 
729	 7,22547980004062E-02 
730	 7,28204261225171E-02 
731	 0,073589044345671 
732	 0,074419773251356 
733	 7,46834315712334E-02 
734	 0,074835643850386 
735	 0,075261880204937 
736	 7,52693406332494E-02 
737	 7,51977961378229E-02 
738	 7,63004863908606E-02 
739	 7,67910806560549E-02 
740	 7,62427175943365E-02 
741	 7,64194468602696E-02 
742	 7,69735849452869E-02 
743	 7,73334715503671E-02 
744	 7,75875371439542E-02 
745	 7,77385227497411E-02 
746	 7,77998326824099E-02 
747	 0,077804765553412 
748	 7,78077735460853E-02 
749	 7,79740757871068E-02 
750	 7,82944889690438E-02 
751	 7,87265681179539E-02 
752	 7,90327324278811E-02 
753	 7,92460167347341E-02 
754	 7,98369929630114E-02 
755	 0,080255569050187 
756	 8,01362176856082E-02 
757	 8,00774843237999E-02 
758	 8,01393238380056E-02 
759	 0,080211934063449 
760	 0,080462234983617 
761	 8,08791871578611E-02 
762	 8,11639490824462E-02 
763	 8,14196319028956E-02 
764	 8,17473139332341E-02 
765	 0,081981787322431 
766	 0,082041505147017 
767	 8,16871823178054E-02 
768	 8,19079198786648E-02 
769	 8,28544131303979E-02 
770	 8,28563955344584E-02 
771	 8,24926176601601E-02 
772	 8,26107644419858E-02 
773	 8,29365064434202E-02 
774	 8,33768130714797E-02 
775	 8,38363356348383E-02 
776	 8,41624716607318E-02 
777	 8,42448152052611E-02 
778	 8,40023448085671E-02 
779	 8,37050991143367E-02 
780	 8,37321687007307E-02 
781	 8,42750411064105E-02 
782	 8,50211307587385E-02 
783	 8,46665843085273E-02 
784	 8,44209934508637E-02 
785	 8,49942116372501E-02 
786	 8,51371998771632E-02 
787	 8,50172174446815E-02 
788	 8,52538897164239E-02 
789	 0,085310855611425 
790	 8,51982616944006E-02 
791	 8,56135859146403E-02 
792	 8,60391004431067E-02 
793	 8,60704982808977E-02 
794	 8,61806346662958E-02 
795	 8,63851644481312E-02 
796	 8,65678486203694E-02 
797	 8,65949900754915E-02 
798	 8,65012241511492E-02 
799	 8,66838977680478E-02 
800	 8,69659359321868E-02 
801	 8,71615440135482E-02 
802	 0,087359470273829 
803	 8,75166208838705E-02 
804	 8,74798106980557E-02 
805	 8,75116807660343E-02 
806	 8,76918649426989E-02 
807	 8,77673455766159E-02 
808	 8,81010025825269E-02 
809	 8,90363772091423E-02 
810	 8,92949876263869E-02 
811	 0,089009082753939 
812	 8,93196646752313E-02 
813	 8,96970898629454E-02 
814	 0,089970651764553 
815	 9,04299397462573E-02 
816	 9,08235466551074E-02 
817	 9,08449617872037E-02 
818	 9,09915031689649E-02 
819	 9,12854766427738E-02 
820	 9,14619197294295E-02 
821	 9,14334044801587E-02 
822	 9,12454512555171E-02 
823	 9,14872409283733E-02 
824	 9,18650549710807E-02 
825	 9,19322702992373E-02 
826	 9,25063198800394E-02 
827	 9,34052624493446E-02 
828	 9,34536520113173E-02 
829	 0,093507907714042 
830	 9,39057930903081E-02 
831	 9,37117741204319E-02 
832	 0,093426564553373 
833	 9,38418720867574E-02 
834	 9,45109842886466E-02 
835	 9,51823636498083E-02 
836	 9,54770304848435E-02 
837	 9,56205300211054E-02 
838	 9,57229928367729E-02 
839	 9,56135809887562E-02 
840	 9,55487296908001E-02 
841	 9,58937447845332E-02 
842	 9,61577790872481E-02 
843	 9,62201519752612E-02 
844	 9,60660568373358E-02 
845	 0,096290588323721 
846	 9,70609351964194E-02 
847	 9,70502782525063E-02 
848	 0,096689598462839 
849	 9,67940379117889E-02 
850	 9,71737842888728E-02 
851	 9,77026573653662E-02 
852	 9,81627530181931E-02 
853	 9,82319277559833E-02 
854	 9,78251119832602E-02 
855	 9,76300880608142E-02 
856	 9,77723508767701E-02 
857	 9,82876065682359E-02 
858	 9,88775459442347E-02 
859	 9,92355972203845E-02 
860	 0,098695142610412 
861	 9,82916889699349E-02 
862	 9,85668038770995E-02 
863	 9,90361274286222E-02 
864	 9,96235428836629E-02 
865	 0,100285630099668 
866	 0,100473211451959 
867	 0,100333194668383 
868	 0,100797746608134 
869	 0,100933954000262 
870	 0,100481349257112 
871	 0,100683959307137 
872	 0,101214995696809 
873	 0,101549552917559 
874	 0,102270482246963 
875	 0,103116703922267 
876	 0,103030673220717 
877	 0,10292162474362 
878	 0,103181469407857 
879	 0,103606440201613 
880	 0,104047148737097 
881	 0,104354742747849 
882	 0,104553590871434 
883	 0,104785742614923 
884	 0,105430442536862 
885	 0,105933432278354 
886	 0,106164639233438 
887	 0,106688560464698 
888	 0,106910445593637 
889	 0,106364824017085 
890	 0,10676766437645 
891	 0,107661111785213 
892	 0,107322172152832 
893	 0,107187849731493 
894	 0,107669092651838 
895	 0,108505144138842 
896	 0,108846968957668 
897	 0,108146683181045 
898	 0,107768072266693 
899	 0,107857502753393 
900	 0,108264543907929 
901	 0,108355048639666 
902	 0,108198201108649 
903	 0,108918579875777 
904	 0,109409590744588 
905	 0,109068917513622 
906	 0,108939361974496 
907	 0,109025051713778 
908	 0,109140752340591 
909	 0,109329314415399 
910	 0,109700327548223 
911	 0,110696054851474 
912	 0,111150257597231 
913	 0,110597502010633 
914	 0,109828246432322 
915	 0,109744161002146 
916	 0,111125552782057 
917	 0,111483194143461 
918	 0,11114484907523 
919	 0,11246102039547 
920	 0,112789943325639 
921	 0,111757843292248 
922	 0,11223937687819 
923	 0,112586589045238 
924	 0,111610379791827 
925	 0,112770275172358 
926	 0,114786478204119 
927	 0,114467723501671 
928	 0,113451982968173 
929	 0,11261112924606 
930	 0,113303732542884 
931	 0,114366178535743 
932	 0,114952505870671 
933	 0,114637984682957 
934	 0,113887991921216 
935	 0,113408388085183 
936	 0,114410227598812 
937	 0,115997613855543 
938	 0,114844941527084 
939	 0,11395519184793 
940	 0,114355188382999 
941	 0,114834351676473 
942	 0,115397835480483 
943	 0,115983505156404 
944	 0,115464305924188 
945	 0,114461818959375 
946	 0,114430239849145 
947	 0,114968659318687 
948	 0,115489670228857 
949	 0,114288109661497 
950	 0,113061596900599 
951	 0,112874548258289 
952	 0,113628497788596 
953	 0,114085745026046 
954	 0,112869956454169 
955	 0,112064965425986 
956	 0,112033805660552 
957	 0,11250166057629 
958	 0,112639877968861 
959	 0,112421880019859 
960	 0,113423142286401 
961	 0,11407147843192 
962	 0,113356128473189 
963	 0,113893997676503 
964	 0,114291494072644 
965	 0,111958956310403 
966	 0,111116648256444 
967	 0,112274632346665 
968	 0,11358744436782 
969	 0,114177291681815 
970	 0,11381500286031 
971	 0,114106390061648 
972	 0,11432751293626 
973	 0,113822825407167 
974	 0,113955779411928 
975	 0,114035601365967 
976	 0,112414806103977 
977	 0,111824613481153 
978	 0,112794905664846 
979	 0,114336389020107 
980	 0,115381746086978 
981	 0,115714349978828 
982	 0,117954799364076 
983	 0,119338113978777 
984	 0,117241207388282 
985	 0,116507009253641 
986	 0,117612135481922 
987	 0,119742042715534 
988	 0,119097293681728 
989	 0,116160289544771 
990	 0,116978336380483 
991	 0,118908903747005 
992	 0,120264363225377 
993	 0,119708759814372 
994	 0,119653042364222 
995	 0,122274218833119 
996	 0,120938629761738 
997	 0,117878346817913 
998	 0,119753069103578 
999	 0,121351950050552 
1000	 0,121604253820247 
1001	 0,121914619531786 
1002	 0,12345666764564 
1003	 0,126024940430106 
1004	 0,124718833002388 
1005	 0,122662655048915 
1006	 0,123255523122702 
1007	 0,124961108717386 
1008	 0,126536608907741 
1009	 0,126304138433107 
1010	 0,124871044745079 
1011	 0,123004399017894 
1012	 0,121905820786396 
1013	 0,124761683518381 
1014	 0,130630429542066 
1015	 0,127451728510946 
1016	 0,123088871911091 
1017	 0,124532495300618 
1018	 0,126316171381254 
1019	 0,127897373349522 
1020	 0,129552265845861 
1021	 0,129517012391785 
1022	 0,129451138274715 
1023	 0,135829277235457 
1024	 0,136387380075573 
1025	 0,12990026671374 
1026	 0,131452737544055 
1027	 0,134034629052825 
1028	 0,133075227921437 
1029	 0,13198043339883 
1030	 0,133755153224462 
1031	 0,140605301355841 
1032	 0,139869940617345 
1033	 0,135093982954078 
1034	 0,138383495049776 
1035	 0,143970864942592 
1036	 0,147796244131741 
1037	 0,141200085165684 
1038	 0,136992507976269 
1039	 0,13894920286707 
1040	 0,132075254736076 
1041	 0,127617750439468 
1042	 0,134431341133408 
1043	 0,140289419607871 
1044	 0,142167255361465 
1045	 0,138650611905424 
1046	 0,1364363310303 
1047	 0,140073755294635 
1048	 0,156231535277407 
1049	 0,161614833202661 
1050	 0,152644907602903 
1051	 0,144369776896506 
1052	 0,142420528929423 
1053	 0,148086932512314 
1054	 0,150620086160032 
1055	 0,150824025514094 
1056	 0,149397706175512 
1057	 0,139935871753404 
1058	 0,129264228501181 
1059	 0,129054840258836 
1060	 0,144255119235716 
1061	 0,160678412131054 
1062	 0,145332073181165 
1063	 0,140323998319245 
1064	 0,151455738493094 
1065	 0,151006878797122 
1066	 0,144557070420909 
1067	 0,134580463462682 
1068	 0,117922482322913 
1069	 0,11808453911628 
1070	 0,146907754363874 
1071	 0,152314501762867 
1072	 0,151778536900171 
1073	 0,169712275022835 
1074	 0,176718581252984 
1075	 0,168176351683469 
