Wavelength	SCORFF200417.asd
325	 0,267172676879914 
326	 0,332666209210125 
327	 0,281879571149752 
328	 0,162426775162588 
329	 0,237116608140153 
330	 0,298241919170893 
331	 0,198773669066556 
332	 0,133039333205845 
333	 0,129297238564913 
334	 0,138625460225371 
335	 0,184023781698934 
336	 0,231391129615173 
337	 0,255798062175281 
338	 0,215231727216843 
339	 7,01164305229049E-02 
340	 8,25603133307744E-02 
341	 0,165976235370458 
342	 7,87691912575156E-02 
343	 7,60429657415967E-02 
344	 0,177425885807731 
345	 0,143573991642442 
346	 9,19120958800365E-02 
347	 0,140166653799417 
348	 0,157609171347113 
349	 0,136468099781584 
350	 0,105748613334326 
351	 9,83964797472639E-02 
352	 0,12048408537186 
353	 0,109381160825963 
354	 7,98837014411807E-02 
355	 5,15432074569415E-02 
356	 6,08078615008113E-02 
357	 0,088775911159175 
358	 6,24738327577868E-02 
359	 5,20131584251422E-02 
360	 7,82447813823582E-02 
361	 5,68161619852175E-02 
362	 2,72577186027667E-02 
363	 0,060707333635129 
364	 7,29810556331579E-02 
365	 5,93284316317281E-02 
366	 6,82203511595161E-02 
367	 7,10480215461577E-02 
368	 5,31787436300578E-02 
369	 4,32318517840619E-02 
370	 3,98427064413366E-02 
371	 3,41236908208179E-02 
372	 3,27200563433056E-02 
373	 3,86311886853508E-02 
374	 6,04689301705411E-02 
375	 0,064677789928866 
376	 3,41574315529796E-02 
377	 5,74686581494126E-02 
378	 0,101112157360005 
379	 6,84848581664336E-02 
380	 0,0403482595621 
381	 0,041217186931602 
382	 5,27566789053119E-02 
383	 5,93183124634461E-02 
384	 4,94192782852273E-02 
385	 3,96593807653829E-02 
386	 3,67070478566686E-02 
387	 0,050061819123187 
388	 5,56236731303604E-02 
389	 4,37122473676589E-02 
390	 1,71407151836476E-02 
391	 3,37119787167141E-03 
392	 3,54362476030807E-02 
393	 3,50127035429079E-02 
394	 8,49847291718484E-03 
395	 2,98042778616854E-02 
396	 4,63640726598921E-02 
397	 3,58210089173287E-02 
398	 3,10860970742742E-02 
399	 3,32167057470289E-02 
400	 0,038538710228488 
401	 3,27128152690299E-02 
402	 1,75007002793662E-02 
403	 1,01612715324751E-02 
404	 1,76695906392405E-02 
405	 3,99574273529819E-02 
406	 3,52986291799759E-02 
407	 1,89743242619138E-02 
408	 0,034340563895006 
409	 4,46895530590509E-02 
410	 4,06050603267866E-02 
411	 3,24645779892679E-02 
412	 2,17215327661898E-02 
413	 1,00307502510608E-02 
414	 1,44579967572222E-02 
415	 2,82841835579626E-02 
416	 2,83648661226769E-02 
417	 2,66587317420059E-02 
418	 2,71937138855709E-02 
419	 2,45434946202618E-02 
420	 2,06365816883876E-02 
421	 1,83536014178703E-02 
422	 1,97103930153753E-02 
423	 2,42545867788511E-02 
424	 3,02533365206234E-02 
425	 0,031301691320939 
426	 2,47478401517234E-02 
427	 2,30903421161258E-02 
428	 2,44579218879263E-02 
429	 2,19723396862707E-02 
430	 2,16972453587573E-02 
431	 0,024244879843042 
432	 2,50807275324116E-02 
433	 2,38422469982087E-02 
434	 2,08429555276937E-02 
435	 2,36549407346556E-02 
436	 2,90598155355902E-02 
437	 0,025769454931857 
438	 2,11930844748522E-02 
439	 1,90127434595359E-02 
440	 2,20394974818157E-02 
441	 2,52635461105075E-02 
442	 2,22057589666223E-02 
443	 2,06437848617943E-02 
444	 2,14752978908973E-02 
445	 2,09545198228331E-02 
446	 2,10637562568979E-02 
447	 2,26551621509582E-02 
448	 2,20010993104051E-02 
449	 2,07624969488463E-02 
450	 2,29461863841811E-02 
451	 2,52909746477352E-02 
452	 2,62687768669463E-02 
453	 2,40640521106522E-02 
454	 2,15433520486735E-02 
455	 2,13925589845383E-02 
456	 2,22377677616099E-02 
457	 2,31224877075046E-02 
458	 0,022027035843431 
459	 2,22488000879154E-02 
460	 2,45938811111858E-02 
461	 2,48185308385468E-02 
462	 2,37818836343848E-02 
463	 2,31883337663365E-02 
464	 2,23015051567464E-02 
465	 2,07523854180705E-02 
466	 1,68432616043658E-02 
467	 1,68126084383473E-02 
468	 0,023610213081877 
469	 2,47492989394173E-02 
470	 2,11543604781511E-02 
471	 1,79006894817132E-02 
472	 1,78016342102101E-02 
473	 2,10821430846241E-02 
474	 2,28347997195167E-02 
475	 2,33989968728708E-02 
476	 2,33673945616664E-02 
477	 2,16810801328957E-02 
478	 1,93177359054668E-02 
479	 1,93408449017211E-02 
480	 1,90951201913665E-02 
481	 1,77290356098937E-02 
482	 1,84016946764068E-02 
483	 1,98547507098663E-02 
484	 1,97721037745157E-02 
485	 2,07630735963865E-02 
486	 2,23977734334348E-02 
487	 2,04368211223076E-02 
488	 1,88931101669511E-02 
489	 2,05882887872951E-02 
490	 2,10550585826538E-02 
491	 1,99017454620237E-02 
492	 1,77371089847419E-02 
493	 1,63611118153293E-02 
494	 1,62769800454223E-02 
495	 1,55698886214505E-02 
496	 1,54170782910506E-02 
497	 1,72457523726354E-02 
498	 1,92082997495889E-02 
499	 0,020298546141862 
500	 1,89665303370329E-02 
501	 1,77648196882194E-02 
502	 1,81027810642247E-02 
503	 1,83441539958331E-02 
504	 1,85688696016165E-02 
505	 1,92628377736244E-02 
506	 2,03865326730195E-02 
507	 2,14084778841818E-02 
508	 2,02540659170657E-02 
509	 1,87993488909304E-02 
510	 1,87955306264848E-02 
511	 1,92417600553437E-02 
512	 1,99241139180044E-02 
513	 2,10159412963711E-02 
514	 2,10952570036748E-02 
515	 1,98030257280506E-02 
516	 1,92446760766451E-02 
517	 1,91767106063238E-02 
518	 1,89238094036133E-02 
519	 1,89979460582037E-02 
520	 0,019507064387177 
521	 2,06276775592047E-02 
522	 2,09046985270882E-02 
523	 1,94923133614046E-02 
524	 1,90983583700607E-02 
525	 1,96864153584081E-02 
526	 2,02623462698504E-02 
527	 2,02239007635266E-02 
528	 1,94933222920464E-02 
529	 1,90939077836274E-02 
530	 1,93738731868733E-02 
531	 0,020591034910935 
532	 2,02138435725295E-02 
533	 1,85703716247728E-02 
534	 1,85359428414837E-02 
535	 1,90596405738213E-02 
536	 1,94259311704266E-02 
537	 0,018945167239752 
538	 1,83641980486247E-02 
539	 1,93076742333242E-02 
540	 1,95754756062542E-02 
541	 1,88807235364686E-02 
542	 1,93260696001818E-02 
543	 1,99247560086805E-02 
544	 1,96415981332774E-02 
545	 1,91477526991682E-02 
546	 1,87969045867266E-02 
547	 1,92207610249914E-02 
548	 1,93656328423665E-02 
549	 1,88398987830526E-02 
550	 1,88042815207549E-02 
551	 1,92205224694088E-02 
552	 1,98450878170682E-02 
553	 2,01616521846674E-02 
554	 1,99556049656147E-02 
555	 1,90914146970366E-02 
556	 1,85007471253158E-02 
557	 1,88988537269719E-02 
558	 1,91366112246119E-02 
559	 1,90405713576087E-02 
560	 1,87547468441098E-02 
561	 1,83368186720314E-02 
562	 0,017957502148196 
563	 0,018385482537387 
564	 1,87454887052632E-02 
565	 1,78119014001095E-02 
566	 1,74659602339048E-02 
567	 1,80190240573281E-02 
568	 1,87452030914149E-02 
569	 1,93643513380405E-02 
570	 1,96093958284881E-02 
571	 1,90521543230709E-02 
572	 1,82858782998925E-02 
573	 1,86754502467308E-02 
574	 1,92092191509915E-02 
575	 1,95816872756836E-02 
576	 0,020265193745643 
577	 2,05322049688559E-02 
578	 1,96009986347625E-02 
579	 1,96755327976938E-02 
580	 2,06703399311073E-02 
581	 2,05959073665071E-02 
582	 2,04947531825707E-02 
583	 2,08872710278548E-02 
584	 0,021022946453848 
585	 2,10071898610773E-02 
586	 2,12145189551338E-02 
587	 2,10939760297708E-02 
588	 2,07360474935693E-02 
589	 2,12829633018959E-02 
590	 2,18832969836853E-02 
591	 2,17462256062503E-02 
592	 2,21440855687132E-02 
593	 2,27464887784309E-02 
594	 2,18760467530575E-02 
595	 0,021470432663769 
596	 2,22109416271334E-02 
597	 2,20112341813781E-02 
598	 2,15401376916163E-02 
599	 2,21435483778709E-02 
600	 2,21441482878127E-02 
601	 2,14125656483437E-02 
602	 2,12808964240608E-02 
603	 2,14678106713943E-02 
604	 2,17101932705459E-02 
605	 2,19049012134868E-02 
606	 2,19090772521713E-02 
607	 2,14347860708002E-02 
608	 2,10470589887643E-02 
609	 2,09456527311181E-02 
610	 2,08158726708938E-02 
611	 2,06514494707339E-02 
612	 2,04777437699446E-02 
613	 1,99089204474765E-02 
614	 1,92116489761516E-02 
615	 0,01953259119396 
616	 2,00666234450087E-02 
617	 2,02324146606813E-02 
618	 1,96960122633933E-02 
619	 1,93288142075331E-02 
620	 2,10901569943795E-02 
621	 2,17191734258319E-02 
622	 2,05824855024885E-02 
623	 0,02036583493851 
624	 2,04350917296703E-02 
625	 2,00027552491028E-02 
626	 1,98144710776452E-02 
627	 1,99872336470723E-02 
628	 2,04462119085464E-02 
629	 2,07498629470046E-02 
630	 2,07232039924572E-02 
631	 2,10775814009469E-02 
632	 2,14343584512215E-02 
633	 2,10289596220546E-02 
634	 2,09893218085387E-02 
635	 2,14596977531506E-02 
636	 2,15394447969375E-02 
637	 2,16185329814804E-02 
638	 2,20202341425161E-02 
639	 2,22070272346792E-02 
640	 2,22663816130952E-02 
641	 2,27199067821245E-02 
642	 2,29165894351621E-02 
643	 2,26982581767563E-02 
644	 2,27982086453006E-02 
645	 2,31221460952605E-02 
646	 2,34622436627504E-02 
647	 2,31291836237436E-02 
648	 2,22941070652295E-02 
649	 2,21393327803824E-02 
650	 0,022319151439923 
651	 2,25475019976249E-02 
652	 2,24797367467518E-02 
653	 2,21832282163238E-02 
654	 2,18924800917524E-02 
655	 2,18718055954766E-02 
656	 2,20644311130266E-02 
657	 2,17004096131041E-02 
658	 2,11156368668984E-02 
659	 2,07062264974832E-02 
660	 0,020288912871851 
661	 1,98841363430118E-02 
662	 1,96229091467462E-02 
663	 1,93795268656637E-02 
664	 1,91208440386852E-02 
665	 1,91079504213795E-02 
666	 1,91521173991105E-02 
667	 1,89045476524095E-02 
668	 1,89748772311325E-02 
669	 1,93375828551621E-02 
670	 1,91686221242411E-02 
671	 1,90476621818642E-02 
672	 1,93968060661928E-02 
673	 1,92655824352091E-02 
674	 1,88905592359233E-02 
675	 1,92820048446426E-02 
676	 1,94339817052629E-02 
677	 1,90668499729103E-02 
678	 0,018786737101954 
679	 1,87805757456731E-02 
680	 0,019194849672317 
681	 1,95108782497954E-02 
682	 1,95921024842476E-02 
683	 1,94441654470143E-02 
684	 1,94702819483288E-02 
685	 1,98449235229917E-02 
686	 1,98193693123225E-02 
687	 1,96440675332087E-02 
688	 0,019895366498528 
689	 2,06466040436973E-02 
690	 2,17183267637363E-02 
691	 2,21698097289517E-02 
692	 2,27199727217409E-02 
693	 2,40156181720613E-02 
694	 2,52733408285107E-02 
695	 2,65428592834953E-02 
696	 0,028277282268049 
697	 3,04375475902894E-02 
698	 3,29889476270129E-02 
699	 3,56665299848227E-02 
700	 3,87086907895566E-02 
701	 4,24506017425451E-02 
702	 4,63722561891362E-02 
703	 5,03750892964559E-02 
704	 5,47487185405394E-02 
705	 5,89170785381518E-02 
706	 6,26103275379205E-02 
707	 6,68956995720427E-02 
708	 7,15571482192773E-02 
709	 7,59070102751831E-02 
710	 8,00968454286596E-02 
711	 8,41537139106784E-02 
712	 0,088086532803574 
713	 9,18795011198882E-02 
714	 9,55162363723751E-02 
715	 9,90042769006584E-02 
716	 0,102335451395006 
717	 0,105518026751774 
718	 0,108444156916527 
719	 0,111068704450505 
720	 0,113391709291422 
721	 0,11567592566701 
722	 0,118249636663074 
723	 0,12049081997054 
724	 0,122300637837873 
725	 0,123933415148918 
726	 0,125328730507188 
727	 0,126514778625295 
728	 0,127970875778183 
729	 0,129459158569612 
730	 0,130420597140632 
731	 0,1314776095197 
732	 0,132746831267168 
733	 0,133908728094381 
734	 0,134822973476168 
735	 0,135393737294703 
736	 0,135844251119657 
737	 0,13640780003139 
738	 0,137612733890508 
739	 0,138349445480502 
740	 0,138356179224684 
741	 0,138810429981409 
742	 0,139512749627352 
743	 0,140114838000333 
744	 0,140458749517992 
745	 0,140690007959446 
746	 0,141479616503035 
747	 0,141844601361965 
748	 0,141455939326285 
749	 0,142013147048433 
750	 0,142951749499207 
751	 0,143096699111299 
752	 0,143305726042324 
753	 0,143724116934534 
754	 0,144017149248611 
755	 0,144271599233889 
756	 0,14454744189523 
757	 0,144738802113007 
758	 0,14497374795579 
759	 0,145554201240592 
760	 0,146012992447234 
761	 0,146244206810461 
762	 0,146546303216332 
763	 0,146959935532595 
764	 0,147486341915039 
765	 0,147784133806647 
766	 0,147827852345785 
767	 0,147668566978217 
768	 0,147862115641929 
769	 0,148481630088195 
770	 0,148410965152864 
771	 0,148299762000572 
772	 0,148996636824348 
773	 0,149393834742062 
774	 0,149487291228711 
775	 0,150150321402962 
776	 0,150448630507694 
777	 0,150000923320351 
778	 0,14976870118635 
779	 0,149789772261873 
780	 0,149941511512499 
781	 0,150109136254237 
782	 0,150270263195067 
783	 0,150518894550016 
784	 0,150755592400142 
785	 0,150916876879439 
786	 0,151051668602617 
787	 0,1512451254877 
788	 0,151642149972119 
789	 0,151927950105328 
790	 0,152045791957139 
791	 0,15223599760087 
792	 0,152337142731091 
793	 0,152250986678624 
794	 0,152373722999992 
795	 0,152690896192533 
796	 0,153069662004571 
797	 0,153064958560985 
798	 0,152730143359829 
799	 0,153147525232436 
800	 0,153645850636506 
801	 0,153576275503237 
802	 0,153626168248523 
803	 0,153874008460443 
804	 0,154185627503271 
805	 0,154550451536507 
806	 0,154898547463775 
807	 0,154966997562152 
808	 0,154997158750782 
809	 0,15525272749686 
810	 0,155318896711647 
811	 0,155323360852808 
812	 0,155905444878667 
813	 0,156218032613901 
814	 0,156006476199368 
815	 0,156078647645416 
816	 0,156404032693227 
817	 0,156846488573946 
818	 0,157005667277616 
819	 0,156930350698176 
820	 0,157069420082529 
821	 0,157260784792809 
822	 0,157478165593197 
823	 0,15804468390251 
824	 0,158487180556484 
825	 0,158189464155297 
826	 0,158331444625664 
827	 0,158909521939025 
828	 0,158933343876349 
829	 0,159016240328783 
830	 0,159422550260177 
831	 0,159760233009975 
832	 0,159784551302512 
833	 0,159237727688546 
834	 0,159613362602224 
835	 0,160762820298388 
836	 0,160933373383526 
837	 0,16087908031233 
838	 0,161007115749739 
839	 0,1611873224769 
840	 0,161445126001684 
841	 0,161821924115428 
842	 0,161785829021807 
843	 0,16142378401885 
844	 0,161484344432948 
845	 0,161602118617016 
846	 0,161595732977413 
847	 0,161651814247417 
848	 0,161759431326064 
849	 0,161875695255764 
850	 0,162164449861717 
851	 0,162413745827489 
852	 0,161766457192251 
853	 0,161382449738091 
854	 0,161786867303272 
855	 0,161809488163166 
856	 0,161738347542122 
857	 0,162134116670188 
858	 0,162352113088346 
859	 0,162275032685968 
860	 0,16205755500193 
861	 0,161855701491621 
862	 0,161799981411881 
863	 0,161991431903685 
864	 0,162432939944861 
865	 0,163098904499817 
866	 0,163464297271997 
867	 0,163651764456224 
868	 0,164627928822765 
869	 0,164764272720489 
870	 0,163623137233525 
871	 0,16364111793231 
872	 0,164223250255495 
873	 0,164381675625697 
874	 0,164794720427357 
875	 0,165424002543658 
876	 0,165805646658924 
877	 0,166187055651506 
878	 0,166614882739317 
879	 0,16673880136718 
880	 0,16702472889743 
881	 0,167911385455315 
882	 0,167575419406582 
883	 0,166581425272144 
884	 0,167371102068944 
885	 0,168295287794172 
886	 0,168681516291799 
887	 0,168270756746369 
888	 0,168004327722605 
889	 0,168721569888676 
890	 0,169358033856728 
891	 0,169533603713869 
892	 0,168819392187948 
893	 0,168601811446468 
894	 0,169189829953861 
895	 0,169680425845616 
896	 0,169759751222291 
897	 0,169250191937041 
898	 0,168683628011084 
899	 0,168397847147446 
900	 0,168785655492127 
901	 0,169336258363808 
902	 0,169640987178301 
903	 0,168835401914521 
904	 0,168310332450948 
905	 0,168868565376177 
906	 0,169476996273572 
907	 0,169786927748205 
908	 0,169512352656225 
909	 0,169228086160723 
910	 0,169248035138592 
911	 0,170113303603897 
912	 0,170418752490483 
913	 0,169690846592604 
914	 0,1694921892765 
915	 0,169735337268922 
916	 0,170123009043243 
917	 0,169828723983588 
918	 0,169403656464022 
919	 0,170841092983208 
920	 0,171376231866239 
921	 0,170375059898285 
922	 0,169815380825882 
923	 0,16966843067614 
924	 0,169864635851494 
925	 0,170668342152314 
926	 0,171327997843896 
927	 0,170482392838658 
928	 0,170018160628615 
929	 0,170209199484179 
930	 0,169868089355357 
931	 0,169554809207988 
932	 0,169605007646988 
933	 0,169906631621998 
934	 0,170220508403873 
935	 0,170274180959496 
936	 0,170828651804883 
937	 0,171346440773408 
938	 0,169797625548608 
939	 0,16866158256589 
940	 0,168760391389381 
941	 0,168736146172039 
942	 0,168800433924224 
943	 0,169095347678462 
944	 0,168582418602332 
945	 0,167478308268403 
946	 0,166469841163948 
947	 0,166317520165452 
948	 0,166655955458767 
949	 0,165196320356574 
950	 0,163763474144701 
951	 0,163525986201857 
952	 0,164731369512912 
953	 0,165219567798951 
954	 0,162576931813002 
955	 0,161097060641825 
956	 0,161214748607583 
957	 0,161690023338347 
958	 0,160737699922112 
959	 0,158385502848981 
960	 0,157992210478194 
961	 0,158858042147534 
962	 0,160115653217223 
963	 0,160201721576963 
964	 0,159519555623661 
965	 0,159091517634508 
966	 0,158258348066791 
967	 0,157409459097009 
968	 0,158107031085767 
969	 0,158720760177154 
970	 0,158526453927069 
971	 0,157868914452601 
972	 0,157235911844031 
973	 0,157078972641655 
974	 0,157496907757184 
975	 0,158001923955382 
976	 0,157728897695563 
977	 0,157226863758929 
978	 0,156907591574799 
979	 0,157619936958267 
980	 0,158112311098721 
981	 0,158028115178265 
982	 0,159375174429988 
983	 0,160308097956787 
984	 0,159114696360037 
985	 0,15997354274099 
986	 0,162105435924121 
987	 0,162577074116625 
988	 0,161300552932325 
989	 0,15925227464821 
990	 0,160127072537581 
991	 0,161166752938544 
992	 0,161091807109613 
993	 0,16157368234126 
994	 0,162616444788594 
995	 0,163931006521302 
996	 0,163353290903369 
997	 0,162059042320743 
998	 0,163041194385819 
999	 0,165113357779176 
1000	 0,167305552667201 
1001	 0,16758220004191 
1002	 0,16674374038011 
1003	 0,165755391357292 
1004	 0,167414622829994 
1005	 0,169297242797291 
1006	 0,16902456308724 
1007	 0,169997295036321 
1008	 0,171561831376699 
1009	 0,171615444923559 
1010	 0,170887433350315 
1011	 0,169913577433875 
1012	 0,169545632067389 
1013	 0,170568353390393 
1014	 0,17270183957511 
1015	 0,172684764251013 
1016	 0,172480476032527 
1017	 0,17363254158487 
1018	 0,172968273443597 
1019	 0,172168936998887 
1020	 0,174254518419677 
1021	 0,17417608520782 
1022	 0,172956747744927 
1023	 0,177045354906155 
1024	 0,179486270373336 
1025	 0,178325888015037 
1026	 0,176357762385927 
1027	 0,17553340442921 
1028	 0,177053217339851 
1029	 0,179495336943892 
1030	 0,181578159377759 
1031	 0,182055369009859 
1032	 0,180634858630986 
1033	 0,179743589815747 
1034	 0,184147781855436 
1035	 0,188665583220321 
1036	 0,189859574906294 
1037	 0,18049154578732 
1038	 0,179361336937287 
1039	 0,190616721886166 
1040	 0,186788109376587 
1041	 0,181755508448626 
1042	 0,186957438380994 
1043	 0,187419841410286 
1044	 0,185509688018585 
1045	 0,187034473466539 
1046	 0,189756184682973 
1047	 0,193531289035851 
1048	 0,199117566985853 
1049	 0,197798257754711 
1050	 0,18941500648729 
1051	 0,184142460428455 
1052	 0,184935341316154 
1053	 0,191872045213507 
1054	 0,196941203908243 
1055	 0,198030706024342 
1056	 0,195053481837275 
1057	 0,199410110617072 
1058	 0,19959463233219 
1059	 0,178839302153863 
1060	 0,17987004312313 
1061	 0,195983900917269 
1062	 0,191280914805294 
1063	 0,184335636124836 
1064	 0,183542040666157 
1065	 0,199743352843049 
1066	 0,212733226296443 
1067	 0,210402472981743 
1068	 0,182463294144457 
1069	 0,170852577749446 
1070	 0,201646101848772 
1071	 0,202895747101592 
1072	 0,194258839076256 
1073	 0,205623218382904 
1074	 0,211519651805053 
1075	 0,205485917617745 
