Wavelength	SCORFF200883.asd
325	 0,20621884404937 
326	 0,190228855342076 
327	 0,113767557496464 
328	 2,84631915128556E-02 
329	 0,121158954556645 
330	 0,23471199457319 
331	 0,261271313154158 
332	 0,153741388719164 
333	 3,45526828919052E-02 
334	 8,99089776488527E-02 
335	 0,165603185112443 
336	 0,169865122733975 
337	 0,117684414586049 
338	 1,85867835939622E-02 
339	-7,04797795285596E-02 
340	-2,59983508906612E-03 
341	 0,11424326065388 
342	 6,62336292439375E-02 
343	 8,21957586971678E-02 
344	 0,17814080404872 
345	 0,161647211119186 
346	 0,104288556472536 
347	 8,07495719436139E-02 
348	 7,58492907783981E-02 
349	 8,23432578457294E-02 
350	 8,99201503927335E-02 
351	 0,101970890217759 
352	 0,107566296365941 
353	 5,72210763809317E-02 
354	 1,01428323245094E-02 
355	 3,94460602544705E-02 
356	 0,081002507782447 
357	 0,100876820436539 
358	 7,25838674052865E-02 
359	 5,57571774616162E-02 
360	 6,89137685925993E-02 
361	 4,10832341744965E-02 
362	 1,69692808586415E-02 
363	 7,11040063377094E-02 
364	 7,56809265302405E-02 
365	 3,62972657269891E-02 
366	 7,55263295135131E-02 
367	 0,101569508346659 
368	 6,31744978423129E-02 
369	 1,73469387755102E-02 
370	-9,29654538079355E-03 
371	 2,38115033924653E-02 
372	 3,12138344424724E-02 
373	 6,29375389690852E-03 
374	 3,34827100157137E-02 
375	 5,55805874052907E-02 
376	 3,43454491121847E-02 
377	 2,67828950485877E-02 
378	 3,32947496461977E-02 
379	 3,56944375548076E-02 
380	 2,68929671484822E-02 
381	 1,26005200134781E-02 
382	 3,84735105773022E-02 
383	 6,29797796179999E-02 
384	 5,01846670143876E-02 
385	 4,04382087399102E-02 
386	 3,69100556780389E-02 
387	 2,30145381036383E-02 
388	 3,07724464675554E-02 
389	 5,99820804286217E-02 
390	 4,26284401132095E-02 
391	 1,48008189175241E-02 
392	 2,68862174841706E-02 
393	 2,61405737720519E-02 
394	 1,35019165363223E-02 
395	 2,86825000756668E-02 
396	 3,23406436220562E-02 
397	 1,10242218784952E-02 
398	 0,015756000579308 
399	 3,20809876714567E-02 
400	 3,14306638008538E-02 
401	 2,61881050162152E-02 
402	 1,99814465907844E-02 
403	 1,24018673480982E-02 
404	 1,39044248680704E-02 
405	 2,85986079485535E-02 
406	 2,62637899677866E-02 
407	 1,75766466383993E-02 
408	 0,033547424483129 
409	 4,29409400271149E-02 
410	 3,85500154803446E-02 
411	 3,26143025423199E-02 
412	 2,79275000568141E-02 
413	 2,63964916291292E-02 
414	 2,69499976692284E-02 
415	 2,86964010127163E-02 
416	 3,09880549781266E-02 
417	 3,04376976258685E-02 
418	 0,025839618914216 
419	 1,83445747579411E-02 
420	 1,44770968785471E-02 
421	 0,022195106788096 
422	 2,54068490151214E-02 
423	 2,30357125152973E-02 
424	 2,53800597124393E-02 
425	 2,60202160281662E-02 
426	 2,19714940297027E-02 
427	 2,21424221605121E-02 
428	 0,024505136467241 
429	 2,30378225980552E-02 
430	 2,42720100245823E-02 
431	 2,81223609873676E-02 
432	 0,02610018123708 
433	 2,31852433840011E-02 
434	 2,39766297791023E-02 
435	 2,57482249735946E-02 
436	 2,70753504784229E-02 
437	 2,57507205806286E-02 
438	 2,39652694938325E-02 
439	 2,29649088003405E-02 
440	 0,024141391942494 
441	 2,53304788844304E-02 
442	 0,023714210307884 
443	 2,33123906109688E-02 
444	 0,024814033475308 
445	 2,74013618061243E-02 
446	 2,85979293111878E-02 
447	 0,027041926263591 
448	 2,52436126144738E-02 
449	 2,46102394691943E-02 
450	 2,69988679701795E-02 
451	 2,88413224184992E-02 
452	 2,92014649885397E-02 
453	 2,99706836345501E-02 
454	 2,98582856269539E-02 
455	 2,76869265558989E-02 
456	 2,46994750687581E-02 
457	 2,22125492526491E-02 
458	 2,27900303619767E-02 
459	 2,33788325032157E-02 
460	 2,27157839623581E-02 
461	 2,18506922446295E-02 
462	 2,16301937450295E-02 
463	 2,30199708570073E-02 
464	 2,40140703332879E-02 
465	 2,39904505313242E-02 
466	 2,22638879181948E-02 
467	 2,32416963445301E-02 
468	 2,88102800546079E-02 
469	 2,83582052849084E-02 
470	 2,40227285760973E-02 
471	 2,26977354733778E-02 
472	 2,38898968648597E-02 
473	 2,71195759363282E-02 
474	 3,03397781371198E-02 
475	 3,14022946886603E-02 
476	 2,85420156714402E-02 
477	 2,53252440955822E-02 
478	 2,35613440216488E-02 
479	 2,60976291035663E-02 
480	 2,67180383068613E-02 
481	 2,33361906448383E-02 
482	 2,37068773496134E-02 
483	 2,62652322863179E-02 
484	 0,027605615814211 
485	 2,70107083090034E-02 
486	 2,48984034396187E-02 
487	 2,34060716341044E-02 
488	 2,44338808814997E-02 
489	 2,87400484453667E-02 
490	 2,87895225371423E-02 
491	 2,59945149048704E-02 
492	 2,64238990708728E-02 
493	 2,72026958772034E-02 
494	 0,027218058391083 
495	 2,53331654466971E-02 
496	 2,38689340971895E-02 
497	 2,54463613364046E-02 
498	 2,70838611803669E-02 
499	 2,78060494152583E-02 
500	 2,70914009929331E-02 
501	 2,57662988439481E-02 
502	 2,46473245404672E-02 
503	 2,58149950037977E-02 
504	 2,78256729730707E-02 
505	 2,76907213229005E-02 
506	 2,82701634304139E-02 
507	 2,96012858331017E-02 
508	 2,81930027526901E-02 
509	 2,64347537300228E-02 
510	 2,65672907240967E-02 
511	 2,71122947502639E-02 
512	 2,77524912830859E-02 
513	 2,86006729480656E-02 
514	 0,028684460975724 
515	 2,76157776889687E-02 
516	 2,56949435756927E-02 
517	 2,47583758315046E-02 
518	 2,72668185346215E-02 
519	 2,81151660137435E-02 
520	 2,71337768975071E-02 
521	 2,91916503856654E-02 
522	 3,06052902227216E-02 
523	 2,89772344278723E-02 
524	 2,90662576710937E-02 
525	 3,03242692514764E-02 
526	 2,98273713048398E-02 
527	 2,90247635643678E-02 
528	 2,85555624859966E-02 
529	 2,92066139598782E-02 
530	 2,99325640194736E-02 
531	 2,94995981826283E-02 
532	 2,86861294157639E-02 
533	 2,80986125839439E-02 
534	 2,89865100750105E-02 
535	 2,99106465485831E-02 
536	 3,00333145299579E-02 
537	 3,01473315502014E-02 
538	 3,01261065850038E-02 
539	 2,94853461211222E-02 
540	 2,92826622807756E-02 
541	 2,97960300114308E-02 
542	 3,06693044541201E-02 
543	 3,10288534403217E-02 
544	 3,01275411077989E-02 
545	 2,97606734874884E-02 
546	 3,00905465377041E-02 
547	 0,030493761884973 
548	 3,05464339749105E-02 
549	 3,01625026613657E-02 
550	 3,05156241975903E-02 
551	 3,12073316056487E-02 
552	 3,14406190901622E-02 
553	 3,12430978044406E-02 
554	 3,08666687247505E-02 
555	 3,13291912597551E-02 
556	 3,18600125971846E-02 
557	 3,18027176092966E-02 
558	 3,15083673306719E-02 
559	 0,031251900190978 
560	 3,14977762306366E-02 
561	 3,20900714418943E-02 
562	 3,27490317215984E-02 
563	 3,23750190860037E-02 
564	 3,14159586358431E-02 
565	 3,05817317021595E-02 
566	 3,07541545495278E-02 
567	 3,17386253767844E-02 
568	 3,19155737275836E-02 
569	 0,032029819090482 
570	 3,25258805043933E-02 
571	 3,23830999744165E-02 
572	 3,19899738863256E-02 
573	 3,25323548807913E-02 
574	 3,28902286043819E-02 
575	 3,28584584420506E-02 
576	 3,35822873757517E-02 
577	 3,42277453823497E-02 
578	 3,38179393817283E-02 
579	 3,39300735708699E-02 
580	 3,46270217688183E-02 
581	 3,50162400521475E-02 
582	 3,48802457177159E-02 
583	 3,41618249298794E-02 
584	 3,34979521978263E-02 
585	 3,33630464405202E-02 
586	 3,44844110292898E-02 
587	 3,45451639554889E-02 
588	 3,34827660119937E-02 
589	 3,45512841611581E-02 
590	 3,58956438874943E-02 
591	 3,57089380649335E-02 
592	 0,035602230285821 
593	 3,56783944272405E-02 
594	 3,53147770004129E-02 
595	 3,50804195183919E-02 
596	 0,035197489033388 
597	 3,51788548827408E-02 
598	 3,51815924606517E-02 
599	 3,55210370560654E-02 
600	 3,57618693376137E-02 
601	 3,57983184657518E-02 
602	 3,57940852646326E-02 
603	 3,55959219104392E-02 
604	 3,51766615188095E-02 
605	 3,57740160976327E-02 
606	 3,67037709512326E-02 
607	 3,57530512156433E-02 
608	 3,49650371891419E-02 
609	 0,03501855360548 
610	 3,49872251382996E-02 
611	 3,48875095823214E-02 
612	 3,48303082924949E-02 
613	 3,44775632689088E-02 
614	 0,034076494911605 
615	 3,46875747330421E-02 
616	 3,54536803746594E-02 
617	 3,57369297482684E-02 
618	 3,51031033505398E-02 
619	 3,44086206413135E-02 
620	 3,55179642692079E-02 
621	 3,61410039695625E-02 
622	 3,57277244168605E-02 
623	 3,56621835709071E-02 
624	 3,54866453365313E-02 
625	 3,47066837162423E-02 
626	 3,47455587263485E-02 
627	 3,54708894615599E-02 
628	 3,56380171199302E-02 
629	 3,54820622756561E-02 
630	 3,52035438665354E-02 
631	 3,55006432365737E-02 
632	 3,60518275067637E-02 
633	 0,036224211802897 
634	 3,58690527077824E-02 
635	 3,54188411661032E-02 
636	 3,69684684142173E-02 
637	 3,80863667116618E-02 
638	 3,68347571524973E-02 
639	 3,65181689316608E-02 
640	 3,72546397690876E-02 
641	 3,78272030317185E-02 
642	 3,79661716112225E-02 
643	 3,75969176192155E-02 
644	 3,73440955341388E-02 
645	 3,74859957506072E-02 
646	 3,82893337647086E-02 
647	 3,82265466665625E-02 
648	 3,73871119144062E-02 
649	 3,75022328674201E-02 
650	 3,79746361259986E-02 
651	 3,82993933975303E-02 
652	 3,76833713286145E-02 
653	 3,68184836519625E-02 
654	 3,73814439899681E-02 
655	 3,78218680274528E-02 
656	 3,76683922666948E-02 
657	 3,73878015630048E-02 
658	 3,69845592807098E-02 
659	 3,64440382074343E-02 
660	 3,57034462374367E-02 
661	 3,50991184580037E-02 
662	 0,035665350362084 
663	 0,035886079310487 
664	 3,51320495595247E-02 
665	 3,49295077784308E-02 
666	 3,51320154922714E-02 
667	 3,52415806299409E-02 
668	 3,51154169885738E-02 
669	 3,48389950776664E-02 
670	 3,50280477222043E-02 
671	 3,51227608923662E-02 
672	 3,47310127767285E-02 
673	 0,03490655647433 
674	 0,035426683527282 
675	 3,53414600225766E-02 
676	 3,51417206921136E-02 
677	 3,50042543418414E-02 
678	 3,48414272811752E-02 
679	 3,49852686066771E-02 
680	 3,58082421220884E-02 
681	 3,61986244859236E-02 
682	 3,60871800792182E-02 
683	 3,62210806891004E-02 
684	 3,62443238545105E-02 
685	 3,60662308130447E-02 
686	 3,66727154306804E-02 
687	 3,75122607750385E-02 
688	 3,73474076877525E-02 
689	 0,037614126429505 
690	 3,86201377542857E-02 
691	 3,97205876004847E-02 
692	 4,05073272582505E-02 
693	 4,07081683973752E-02 
694	 4,14391431319825E-02 
695	 4,28162083035922E-02 
696	 0,044562517003575 
697	 4,63065947268822E-02 
698	 4,78607651053958E-02 
699	 4,93038653451002E-02 
700	 5,09704469293821E-02 
701	 5,32671610176372E-02 
702	 5,55023436511951E-02 
703	 5,76638613692241E-02 
704	 6,04182097936199E-02 
705	 0,063047614718725 
706	 6,51020992804219E-02 
707	 0,066952151025678 
708	 6,88408238766982E-02 
709	 7,10942369509925E-02 
710	 0,073382089267231 
711	 7,55146761415101E-02 
712	 7,71855351828711E-02 
713	 7,87475559491584E-02 
714	 8,05320412826839E-02 
715	 8,22804783051214E-02 
716	 8,39191758660526E-02 
717	 8,53814651068079E-02 
718	 8,68459503989161E-02 
719	 8,83251259661256E-02 
720	 8,93711106027516E-02 
721	 9,03672584218115E-02 
722	 9,18488872029369E-02 
723	 0,092830275200832 
724	 9,32745221327674E-02 
725	 9,38762038849019E-02 
726	 9,45947976926197E-02 
727	 0,095389546971956 
728	 9,60450177549815E-02 
729	 0,096622898808102 
730	 0,097295515359918 
731	 9,79407053992427E-02 
732	 9,85264508887676E-02 
733	 9,91302496584669E-02 
734	 9,95468216985707E-02 
735	 9,96193869628998E-02 
736	 9,96671340439039E-02 
737	 9,98996298088301E-02 
738	 0,100706783229543 
739	 0,101311539956406 
740	 0,101433424116861 
741	 0,101418845674432 
742	 0,10150479703451 
743	 0,101918773561665 
744	 0,102157301141961 
745	 0,102251606019971 
746	 0,102745079935444 
747	 0,102928542995397 
748	 0,102539316435748 
749	 0,102633039159417 
750	 0,102910858509945 
751	 0,102694618839935 
752	 0,103024697622409 
753	 0,10386254945674 
754	 0,103968828969037 
755	 0,103974258656934 
756	 0,10430561025238 
757	 0,104288907685654 
758	 0,104134218462124 
759	 0,104456752865556 
760	 0,104842896514842 
761	 0,105114222934292 
762	 0,105102558968388 
763	 0,105127171996707 
764	 0,105483131322377 
765	 0,105886601311647 
766	 0,106131738099507 
767	 0,105751318020708 
768	 0,105856478388423 
769	 0,10667485052445 
770	 0,106671191068831 
771	 0,106342618843702 
772	 0,10642716008729 
773	 0,106795288710913 
774	 0,107297779030783 
775	 0,107595774993275 
776	 0,10764782483583 
777	 0,10745043389577 
778	 0,107186139615711 
779	 0,107014503028787 
780	 0,107111994666641 
781	 0,107466699262202 
782	 0,10791174983625 
783	 0,107944340568821 
784	 0,107818145192768 
785	 0,107711646099012 
786	 0,107551355778895 
787	 0,10752350313458 
788	 0,107965800184659 
789	 0,108310475313951 
790	 0,108419386471572 
791	 0,108587890559311 
792	 0,108595508450608 
793	 0,108331661371761 
794	 0,108595066605398 
795	 0,109179137520128 
796	 0,109396497073026 
797	 0,109241677457837 
798	 0,108891146653515 
799	 0,109293041126705 
800	 0,109699026499456 
801	 0,109404255988726 
802	 0,109282840970222 
803	 0,109403360150945 
804	 0,109459015419364 
805	 0,109824092439739 
806	 0,110460108295015 
807	 0,110438702802706 
808	 0,110309175609573 
809	 0,110693112061672 
810	 0,110609525586107 
811	 0,110198112363716 
812	 0,110387702886833 
813	 0,110662441090299 
814	 0,110812062473308 
815	 0,110908348710686 
816	 0,111072748120983 
817	 0,111427375024308 
818	 0,111257561860572 
819	 0,110820532869067 
820	 0,111443769609533 
821	 0,111713806843119 
822	 0,11114412318311 
823	 0,111284355438693 
824	 0,111642998313703 
825	 0,11140763837405 
826	 0,111638671250068 
827	 0,112239500497336 
828	 0,112086061129408 
829	 0,112071819954548 
830	 0,112491885522923 
831	 0,112014699933714 
832	 0,11134360505074 
833	 0,111603302004353 
834	 0,112101472783591 
835	 0,112590601558254 
836	 0,112881537625607 
837	 0,113065697037043 
838	 0,11319705943644 
839	 0,113297241306075 
840	 0,113408425215478 
841	 0,113581800381812 
842	 0,113380791382855 
843	 0,112955208571158 
844	 0,113120923188172 
845	 0,113532242811807 
846	 0,113895014085293 
847	 0,113612390107395 
848	 0,113176253253425 
849	 0,113365577067216 
850	 0,113622451905506 
851	 0,113732651353168 
852	 0,113465596490006 
853	 0,113239376526541 
854	 0,11327339189323 
855	 0,1132985859427 
856	 0,113379420143495 
857	 0,113637496721511 
858	 0,113905282579156 
859	 0,114019652850136 
860	 0,113609269895196 
861	 0,113305899810298 
862	 0,113401578079222 
863	 0,113390520299868 
864	 0,113268154654119 
865	 0,113105922112031 
866	 0,113589810899808 
867	 0,114393072296715 
868	 0,114029592958047 
869	 0,113610480167132 
870	 0,113661340570053 
871	 0,113875423792066 
872	 0,114102318708837 
873	 0,114193400983088 
874	 0,114269506718805 
875	 0,114400668484861 
876	 0,114683366298664 
877	 0,115102366852507 
878	 0,115587684212476 
879	 0,115879074962614 
880	 0,11591419791988 
881	 0,115679868820245 
882	 0,115656400135164 
883	 0,115751183596904 
884	 0,115317949943659 
885	 0,115492713083247 
886	 0,116449460953801 
887	 0,116867006800612 
888	 0,116764762997258 
889	 0,116322693850267 
890	 0,11662277764836 
891	 0,117210765341475 
892	 0,116602038092121 
893	 0,116187850815932 
894	 0,116426782255926 
895	 0,117353630021708 
896	 0,117396369655003 
897	 0,115567753523125 
898	 0,114620366743906 
899	 0,114902110170549 
900	 0,116213562231996 
901	 0,116849304308745 
902	 0,116437017556421 
903	 0,11580190856904 
904	 0,115692327090582 
905	 0,116379488576089 
906	 0,116017316419358 
907	 0,115435988558289 
908	 0,116113841251078 
909	 0,11634220145304 
910	 0,115972949828077 
911	 0,115826715637801 
912	 0,116171373990883 
913	 0,116915059947939 
914	 0,116601831032563 
915	 0,116053499749167 
916	 0,116289286356795 
917	 0,116283487308049 
918	 0,116182995027936 
919	 0,116969912641892 
920	 0,117054789006844 
921	 0,116215693681279 
922	 0,116280005942466 
923	 0,116365197294527 
924	 0,115841287729178 
925	 0,116791277450967 
926	 0,118099033653416 
927	 0,117221130528765 
928	 0,11658912723194 
929	 0,116715570755291 
930	 0,116691368196072 
931	 0,117015687255223 
932	 0,117813121467905 
933	 0,118004614406428 
934	 0,11763638867263 
935	 0,116980302253525 
936	 0,117482106695356 
937	 0,118547342768721 
938	 0,117550308239608 
939	 0,116441816127028 
940	 0,116078886520557 
941	 0,1165428682258 
942	 0,117477394695369 
943	 0,11838444791458 
944	 0,117819306803826 
945	 0,116504316437692 
946	 0,116210673785504 
947	 0,116486706755142 
948	 0,116724108632753 
949	 0,114899740310577 
950	 0,114280781963828 
951	 0,116247761447469 
952	 0,116563106578499 
953	 0,115742617202522 
954	 0,115003977837872 
955	 0,115395148496205 
956	 0,115986137118063 
957	 0,113602255740954 
958	 0,11204313744828 
959	 0,112422809742919 
960	 0,112965824336136 
961	 0,114218278103699 
962	 0,116269058423024 
963	 0,116458168042818 
964	 0,115052049175913 
965	 0,113089374222243 
966	 0,112915123745205 
967	 0,114496128436261 
968	 0,115822308079207 
969	 0,115456517385822 
970	 0,113429940546593 
971	 0,114021355165354 
972	 0,114586235076998 
973	 0,112774996397631 
974	 0,112847315205649 
975	 0,114019250561015 
976	 0,113632359980169 
977	 0,113288866453581 
978	 0,113289032943737 
979	 0,113068432680048 
980	 0,113530085638953 
981	 0,115050713804429 
982	 0,117281623572366 
983	 0,118091109303757 
984	 0,115764675419199 
985	 0,11508609995206 
986	 0,116379701234249 
987	 0,118521059405536 
988	 0,117673269609186 
989	 0,114536521315405 
990	 0,116045931743679 
991	 0,118303614383952 
992	 0,119158120834455 
993	 0,118974564253289 
994	 0,11875414402834 
995	 0,119380451464306 
996	 0,118489251257235 
997	 0,116886025609112 
998	 0,116967054428792 
999	 0,11627881942684 
1000	 0,115366549259028 
1001	 0,11870546461649 
1002	 0,121183451481377 
1003	 0,120816965706282 
1004	 0,122650179711827 
1005	 0,124102134632735 
1006	 0,122493830138328 
1007	 0,120298369489393 
1008	 0,119526673597562 
1009	 0,122830038640309 
1010	 0,123720253066992 
1011	 0,121158473922101 
1012	 0,117266752070358 
1013	 0,118536848832295 
1014	 0,125511662711005 
1015	 0,124870777898024 
1016	 0,121123866189447 
1017	 0,119192271965502 
1018	 0,120987576121238 
1019	 0,124279358922122 
1020	 0,125218624163591 
1021	 0,12372797677911 
1022	 0,121976746725686 
1023	 0,126487686853676 
1024	 0,12758473376639 
1025	 0,12338781458205 
1026	 0,121465016336336 
1027	 0,122081135826284 
1028	 0,124845524145256 
1029	 0,126410145457436 
1030	 0,126914323090184 
1031	 0,127039033693193 
1032	 0,125968805297707 
1033	 0,125685791197165 
1034	 0,130244665255302 
1035	 0,13384610211036 
1036	 0,134573617790318 
1037	 0,131890107144629 
1038	 0,132262371645303 
1039	 0,135849401089154 
1040	 0,126247277363405 
1041	 0,118188844911102 
1042	 0,123365822050694 
1043	 0,125147075287379 
1044	 0,125484239959644 
1045	 0,129629685909992 
1046	 0,125287704588111 
1047	 0,120091468500738 
1048	 0,138873127475944 
1049	 0,143501202103871 
1050	 0,130321588633055 
1051	 0,132619185593227 
1052	 0,134444812518002 
1053	 0,129552099867337 
1054	 0,129154314489043 
1055	 0,131648163509387 
1056	 0,134384375555514 
1057	 0,133629792011769 
1058	 0,13019767491685 
1059	 0,126624413225745 
1060	 0,130828607420141 
1061	 0,13746544971254 
1062	 0,130916027424605 
1063	 0,125372068427881 
1064	 0,126936019538229 
1065	 0,141623189531762 
1066	 0,149064389205433 
1067	 0,139830060915902 
1068	 0,116871376315062 
1069	 0,108914123797725 
1070	 0,133751836062632 
1071	 0,145511972839319 
1072	 0,1447176384465 
1073	 0,138886458720641 
1074	 0,143795420295729 
1075	 0,150868117282595 
