Wavelength	SCORFF200680.asd
325	 9,24739032568592E-02 
326	 0,288327869269086 
327	 0,338199384066637 
328	 0,207801400367504 
329	 0,149769997278841 
330	 0,137288994791144 
331	 0,137228441830952 
332	 0,175387944906459 
333	 0,215549444301724 
334	 0,208407713191268 
335	 0,20740556417104 
336	 0,207480411715384 
337	 9,83952969313443E-02 
338	-1,62463315558696E-02 
339	 3,53917815617256E-02 
340	 6,27372371731991E-02 
341	 5,76921569826036E-02 
342	 7,40194362360293E-02 
343	 0,132885457889281 
344	 0,193168505628629 
345	 0,114991369912791 
346	 4,66410959879093E-02 
347	 0,135160059774545 
348	 0,151490088206456 
349	 9,98588343487757E-02 
350	 7,55909615456204E-02 
351	 0,085650456955884 
352	 0,117578010209522 
353	 8,31741887096438E-02 
354	 3,65595035193401E-02 
355	 4,54472048228663E-02 
356	 5,54458216864553E-02 
357	 6,33883789007875E-02 
358	 0,108649894566326 
359	 0,110493758543143 
360	 4,41238405200502E-02 
361	 1,07270523410537E-02 
362	 1,43666936771263E-02 
363	 3,77699185151652E-02 
364	 5,49666443222806E-02 
365	 6,19567960553821E-02 
366	 6,47113103505529E-02 
367	 7,54420048910356E-02 
368	 9,44561710659146E-02 
369	 5,59226381135414E-02 
370	 4,09252623066449E-04 
371	 2,48172754963984E-02 
372	 3,37658372616202E-02 
373	 1,41462712011555E-02 
374	 3,14438626150903E-02 
375	 3,86138577738943E-02 
376	 6,46526080397035E-03 
377	 0,017029046319378 
378	 0,050714153756491 
379	 4,18215433664568E-02 
380	 2,89072550859512E-02 
381	 2,75110934532281E-02 
382	 5,29546530372296E-02 
383	 7,26332992645066E-02 
384	 5,96010618825091E-02 
385	 0,034713528116538 
386	 1,77716280580523E-02 
387	 4,96940165596031E-02 
388	 6,25544750855891E-02 
389	 3,72202814381167E-02 
390	 3,25038676534455E-02 
391	 3,75151310072698E-02 
392	 0,0343138393451 
393	 2,54565706319621E-02 
394	 1,67548298266243E-02 
395	 2,58794189769136E-02 
396	 3,37971052726936E-02 
397	 3,15345622014077E-02 
398	 2,45375154598527E-02 
399	 2,22442717629866E-02 
400	 3,77143234005407E-02 
401	 3,84914383162411E-02 
402	 2,22606828549245E-02 
403	 0,010665482640365 
404	 1,51726206890163E-02 
405	 3,85656004852398E-02 
406	 3,62046262441188E-02 
407	 1,95075535229973E-02 
408	 0,02408686435723 
409	 0,029162907473066 
410	 2,92172687705968E-02 
411	 2,76908402723853E-02 
412	 2,47134053323537E-02 
413	 2,04882551394802E-02 
414	 1,86564577533953E-02 
415	 1,93063919813019E-02 
416	 2,09981694641804E-02 
417	 2,21206617976683E-02 
418	 2,15242256791174E-02 
419	 1,75594162317866E-02 
420	 1,37436797468459E-02 
421	 1,45550873577098E-02 
422	 1,95539047981851E-02 
423	 2,52736037499353E-02 
424	 2,18869843020915E-02 
425	 1,81057738863505E-02 
426	 1,87953353277116E-02 
427	 1,84178104877358E-02 
428	 1,62678175163352E-02 
429	 1,17966147312968E-02 
430	 1,23493191387961E-02 
431	 1,79473348463971E-02 
432	 1,88058894530961E-02 
433	 0,017210621543147 
434	 0,015814337776712 
435	 1,81616740992841E-02 
436	 0,022295329339853 
437	 0,021880728746393 
438	 2,02376519249259E-02 
439	 0,018905725995394 
440	 1,88466884101981E-02 
441	 1,90150477965454E-02 
442	 1,79761444763836E-02 
443	 1,64467575605016E-02 
444	 1,54413349425809E-02 
445	 0,018082545948784 
446	 1,87671741197343E-02 
447	 1,46814936180788E-02 
448	 0,013305827953649 
449	 1,49645723256696E-02 
450	 1,83110550045888E-02 
451	 2,10209128729479E-02 
452	 2,19820331179439E-02 
453	 2,12226496211625E-02 
454	 1,87649779871875E-02 
455	 1,48679726813513E-02 
456	 1,30714581503175E-02 
457	 1,33752626629533E-02 
458	 1,34731713038692E-02 
459	 0,014519338702674 
460	 0,016691938088299 
461	 1,88765296818354E-02 
462	 1,97494535960938E-02 
463	 1,78215612962984E-02 
464	 0,015485984354044 
465	 0,013984837127764 
466	 1,47653917709487E-02 
467	 1,65282870428907E-02 
468	 1,80540289959909E-02 
469	 0,017279534248579 
470	 1,56629180395538E-02 
471	 1,68723342150411E-02 
472	 1,62265475781061E-02 
473	 1,36468050324178E-02 
474	 1,61932080311269E-02 
475	 1,87955384085599E-02 
476	 0,016369728083319 
477	 1,50405141035806E-02 
478	 1,54591045445464E-02 
479	 1,59391678771206E-02 
480	 1,59587995219566E-02 
481	 1,52779822409133E-02 
482	 1,44067950705282E-02 
483	 1,43070945052298E-02 
484	 1,63233780338379E-02 
485	 1,64900934862912E-02 
486	 1,47744835884464E-02 
487	 0,015545775449154 
488	 1,61918667551908E-02 
489	 1,48876084027083E-02 
490	 1,48179054862014E-02 
491	 1,56308743055265E-02 
492	 1,55324110946506E-02 
493	 1,45004417073109E-02 
494	 1,28390064168757E-02 
495	 1,20758800317707E-02 
496	 1,28581503111899E-02 
497	 1,56712801081564E-02 
498	 1,65892698250738E-02 
499	 1,55260814579879E-02 
500	 1,53570894839116E-02 
501	 1,50490268332308E-02 
502	 1,41676079428662E-02 
503	 1,37513861063654E-02 
504	 1,37714656317343E-02 
505	 0,013885608388507 
506	 1,46062464402546E-02 
507	 1,57036207530997E-02 
508	 1,57735277648392E-02 
509	 1,52191207977677E-02 
510	 1,45645223143333E-02 
511	 1,54744679840932E-02 
512	 0,016973213234859 
513	 1,56570454369199E-02 
514	 1,46082615471745E-02 
515	 1,49262887274205E-02 
516	 0,014385766822575 
517	 0,013622519827392 
518	 1,38003118472781E-02 
519	 1,40150142023363E-02 
520	 1,42112443024002E-02 
521	 1,52607479302177E-02 
522	 1,54906587944595E-02 
523	 1,39556866745458E-02 
524	 1,41293110081827E-02 
525	 1,56092929091422E-02 
526	 1,64588145709169E-02 
527	 1,60230083567741E-02 
528	 1,45469844237425E-02 
529	 1,50044698179844E-02 
530	 1,62347890136552E-02 
531	 1,66514233910579E-02 
532	 1,54102515142014E-02 
533	 1,34043507908924E-02 
534	 1,40162608477487E-02 
535	 1,48710241211676E-02 
536	 0,014634005453171 
537	 1,46509655217094E-02 
538	 1,48174852942287E-02 
539	 1,46066473787743E-02 
540	 0,014650178978641 
541	 1,50548844281874E-02 
542	 1,53801711999271E-02 
543	 1,55704562222165E-02 
544	 1,55751731374127E-02 
545	 1,48072415091109E-02 
546	 1,38438934499477E-02 
547	 1,45644667559932E-02 
548	 1,53123345419367E-02 
549	 1,52786223219745E-02 
550	 1,49112174491635E-02 
551	 0,014772780390816 
552	 1,56988372424155E-02 
553	 1,56760771939431E-02 
554	 1,46965689395795E-02 
555	 1,52313071096638E-02 
556	 0,015885986916625 
557	 1,55113021461046E-02 
558	 1,54446101825311E-02 
559	 1,55657798173291E-02 
560	 1,48813599261878E-02 
561	 1,47210846383319E-02 
562	 1,53438588192844E-02 
563	 0,014804660153898 
564	 1,39100958913284E-02 
565	 1,39336241856292E-02 
566	 1,44291650375715E-02 
567	 1,50747597110846E-02 
568	 1,50972956989608E-02 
569	 1,53642588519928E-02 
570	 0,016285630009473 
571	 1,55265811206308E-02 
572	 1,40464308477387E-02 
573	 0,014600452291618 
574	 1,57784158751365E-02 
575	 1,68826860387106E-02 
576	 1,69924068491441E-02 
577	 1,65647323140371E-02 
578	 1,62207226378021E-02 
579	 1,65262346310544E-02 
580	 1,73115391328288E-02 
581	 1,76872594708265E-02 
582	 1,73523784151178E-02 
583	 1,63488130048509E-02 
584	 1,65258215674304E-02 
585	 1,73943400615957E-02 
586	 1,77077460263386E-02 
587	 1,73692513328362E-02 
588	 1,66376499009537E-02 
589	 1,68540115501392E-02 
590	 1,75987218723706E-02 
591	 1,83638583248209E-02 
592	 1,83692829259817E-02 
593	 1,78080596270396E-02 
594	 1,76631124169887E-02 
595	 1,76148761413243E-02 
596	 1,75623452770639E-02 
597	 1,76258510411277E-02 
598	 1,78708215492817E-02 
599	 1,84066635501043E-02 
600	 0,018346572822207 
601	 1,76940211102527E-02 
602	 1,74931725760205E-02 
603	 1,75072656452944E-02 
604	 1,75438432107842E-02 
605	 1,78462412302061E-02 
606	 1,81433395091824E-02 
607	 1,77523292582487E-02 
608	 1,70997486866683E-02 
609	 1,64684756199381E-02 
610	 1,64132838344297E-02 
611	 0,016500065894179 
612	 1,61364981054925E-02 
613	 1,62256607294525E-02 
614	 1,66900775155908E-02 
615	 1,65342607653395E-02 
616	 1,63986507525466E-02 
617	 1,66023558629311E-02 
618	 1,60217149478179E-02 
619	 1,53759171707797E-02 
620	 1,64109560513647E-02 
621	 1,73105150390988E-02 
622	 1,74523377195568E-02 
623	 1,70283530650214E-02 
624	 1,66278824528584E-02 
625	 1,68277663171975E-02 
626	 1,70262352094397E-02 
627	 1,70016470783153E-02 
628	 1,64534793939978E-02 
629	 1,61663370001139E-02 
630	 1,64966500508597E-02 
631	 1,67390111675247E-02 
632	 1,68407423336682E-02 
633	 1,68757769050124E-02 
634	 1,66850634187633E-02 
635	 1,65005703417707E-02 
636	 1,74872532236694E-02 
637	 1,81879007094471E-02 
638	 1,74571000966252E-02 
639	 1,74564791908313E-02 
640	 1,81818520916488E-02 
641	 1,86715568862545E-02 
642	 1,86624194737844E-02 
643	 1,82126417284363E-02 
644	 1,86284255169847E-02 
645	 1,93784945840704E-02 
646	 0,019625316618698 
647	 1,89501994713441E-02 
648	 1,78508589423502E-02 
649	 1,84210017684663E-02 
650	 1,91361657220918E-02 
651	 0,018968380301581 
652	 1,85239101546035E-02 
653	 1,81411912758249E-02 
654	 1,83571895149477E-02 
655	 1,83765390007713E-02 
656	 1,79935108563021E-02 
657	 1,76936536755768E-02 
658	 1,72610639975725E-02 
659	 1,64839221782547E-02 
660	 1,63973070736497E-02 
661	 1,68696792457806E-02 
662	 0,016942774418511 
663	 1,65544743084791E-02 
664	 1,58266971523661E-02 
665	 1,60688411413118E-02 
666	 1,65324770441591E-02 
667	 1,57938537087537E-02 
668	 1,55451477962654E-02 
669	 1,59609874586552E-02 
670	 1,57382098271115E-02 
671	 1,54304904513183E-02 
672	 1,55058187875797E-02 
673	 1,57735262435736E-02 
674	 1,60990187274413E-02 
675	 1,62899444522009E-02 
676	 1,62370227171864E-02 
677	 1,59765443902242E-02 
678	 1,59626387770202E-02 
679	 1,61469528105372E-02 
680	 1,64179304140539E-02 
681	 0,016586085658977 
682	 1,66016666360584E-02 
683	 1,64544369624043E-02 
684	 1,64765190725445E-02 
685	 1,68679916216865E-02 
686	 0,017494554303186 
687	 1,80640256899076E-02 
688	 1,80953544317079E-02 
689	 1,83116939267676E-02 
690	 1,88827963183472E-02 
691	 1,94742862216843E-02 
692	 0,019956775294921 
693	 2,03125976040213E-02 
694	 2,18794243565632E-02 
695	 2,43043141941907E-02 
696	 2,60152990359208E-02 
697	 0,027919059460768 
698	 0,030315041134764 
699	 3,26620624277044E-02 
700	 3,54337410002913E-02 
701	 3,92794330117231E-02 
702	 0,043090222337275 
703	 0,046648242720367 
704	 5,03119778224277E-02 
705	 5,41119507236141E-02 
706	 5,80602062073494E-02 
707	 6,20644585802279E-02 
708	 6,60602406559358E-02 
709	 6,99372398138143E-02 
710	 7,39065256025306E-02 
711	 7,79597737010042E-02 
712	 8,17612390054692E-02 
713	 8,53532189750328E-02 
714	 8,87820323707181E-02 
715	 9,19215868326754E-02 
716	 9,48132198962511E-02 
717	 9,75924731355827E-02 
718	 0,100380691249993 
719	 0,103161923306769 
720	 0,105467198299537 
721	 0,107514992739123 
722	 0,109643643952563 
723	 0,111829663781619 
724	 0,113884799348223 
725	 0,115223394078204 
726	 0,116275039867378 
727	 0,117369251234262 
728	 0,118763103949543 
729	 0,120291545533695 
730	 0,121601193527024 
731	 0,122744255617736 
732	 0,123721931094631 
733	 0,124563880834336 
734	 0,125269699133816 
735	 0,125852876970974 
736	 0,126465909620319 
737	 0,127207637638953 
738	 0,128305159678381 
739	 0,12908352197553 
740	 0,129323843287853 
741	 0,12944010371647 
742	 0,129758222165234 
743	 0,130589115676128 
744	 0,131102146300727 
745	 0,131247403393024 
746	 0,131536155470912 
747	 0,131715885641882 
748	 0,131758309256462 
749	 0,132404902896172 
750	 0,13316582654401 
751	 0,133155507954139 
752	 0,133498524233809 
753	 0,134235719616984 
754	 0,134283369386024 
755	 0,134341472077902 
756	 0,134875321124066 
757	 0,13507542229059 
758	 0,135113231923124 
759	 0,135582879171332 
760	 0,136105750470634 
761	 0,136505829898219 
762	 0,136555420453504 
763	 0,136680296767622 
764	 0,137266251600972 
765	 0,137774623572941 
766	 0,13811419320606 
767	 0,138324998309851 
768	 0,138616581300643 
769	 0,139007559513747 
770	 0,139033949226976 
771	 0,138996534375424 
772	 0,13928522919236 
773	 0,139538210355161 
774	 0,139763151955489 
775	 0,14030423721415 
776	 0,14052813463465 
777	 0,14020687019455 
778	 0,140261508740823 
779	 0,140508438673225 
780	 0,140515031807564 
781	 0,140702047302284 
782	 0,141065634879905 
783	 0,141207021134349 
784	 0,141361054194728 
785	 0,141638677992141 
786	 0,141580649328575 
787	 0,141445574344722 
788	 0,141799645793333 
789	 0,142137266235618 
790	 0,142334787413274 
791	 0,142559039339006 
792	 0,142790641963918 
793	 0,143019583505568 
794	 0,143347408885129 
795	 0,14368045006078 
796	 0,14382284857236 
797	 0,143677759638097 
798	 0,143338904583282 
799	 0,143378985979061 
800	 0,143593093371913 
801	 0,143749603693524 
802	 0,143787511607966 
803	 0,143779541330509 
804	 0,143927277074622 
805	 0,144261824995758 
806	 0,144712273915129 
807	 0,144818288622081 
808	 0,144866551552922 
809	 0,14518526823438 
810	 0,14532251287418 
811	 0,145440398842981 
812	 0,146325514828457 
813	 0,146759262221744 
814	 0,146414623114342 
815	 0,146702139500249 
816	 0,147392009288314 
817	 0,148044919290277 
818	 0,148163864046553 
819	 0,147931729303538 
820	 0,148278385214678 
821	 0,148677452606579 
822	 0,148932215333136 
823	 0,149458702187463 
824	 0,149886418806496 
825	 0,149717787807178 
826	 0,150211922950059 
827	 0,151232101544253 
828	 0,15135112369579 
829	 0,151426007085286 
830	 0,151799864501956 
831	 0,15163293820828 
832	 0,151366027703731 
833	 0,151695554775803 
834	 0,152685373081416 
835	 0,153827460095847 
836	 0,153482229120139 
837	 0,153051135812781 
838	 0,153287362644214 
839	 0,153565802198348 
840	 0,153894625415821 
841	 0,154372849087425 
842	 0,154195380370934 
843	 0,153558255953486 
844	 0,153709805951221 
845	 0,154379626720608 
846	 0,155235285180629 
847	 0,15509971182483 
848	 0,154565385421453 
849	 0,154658303209107 
850	 0,154878246637533 
851	 0,154986162815795 
852	 0,154503170792657 
853	 0,154434902554172 
854	 0,155133396012611 
855	 0,154905784867644 
856	 0,154462081872719 
857	 0,155008531433144 
858	 0,155274933170061 
859	 0,155051210497631 
860	 0,154652921972969 
861	 0,15449169852663 
862	 0,154792803270814 
863	 0,155337305656658 
864	 0,155853567477852 
865	 0,15603739346844 
866	 0,156207813796763 
867	 0,156490057346709 
868	 0,157135877586604 
869	 0,157113570097586 
870	 0,156206791263963 
871	 0,15631334360864 
872	 0,157076359594099 
873	 0,157817785622037 
874	 0,158067007926494 
875	 0,158082339787696 
876	 0,158976208817326 
877	 0,159967626286426 
878	 0,160709729923339 
879	 0,16136237680809 
880	 0,161699039163715 
881	 0,16150545092277 
882	 0,161309976737505 
883	 0,161354729198573 
884	 0,161928958354797 
885	 0,162463361707891 
886	 0,162830153691268 
887	 0,163707542666559 
888	 0,164220943256213 
889	 0,163627745266203 
890	 0,16352004228092 
891	 0,163937902653402 
892	 0,164280918870694 
893	 0,164679206754752 
894	 0,165132923497805 
895	 0,165740164693926 
896	 0,165682595559134 
897	 0,164503625639402 
898	 0,164104103438433 
899	 0,164535700350707 
900	 0,165314507019377 
901	 0,165914327582452 
902	 0,166116344101419 
903	 0,165876653552607 
904	 0,165986359293115 
905	 0,166800310407565 
906	 0,167052628059602 
907	 0,166751319895206 
908	 0,166153874276801 
909	 0,166507477716927 
910	 0,167565175051064 
911	 0,167575212059598 
912	 0,1670197104634 
913	 0,166306963334222 
914	 0,166449600419532 
915	 0,166869439020724 
916	 0,166866948836543 
917	 0,167757230230349 
918	 0,16912731608508 
919	 0,169464439410383 
920	 0,168752362447259 
921	 0,167521382554334 
922	 0,168326218942147 
923	 0,16931193258925 
924	 0,168933283118989 
925	 0,169000736299345 
926	 0,169305326259964 
927	 0,168991276930418 
928	 0,168464234753338 
929	 0,168045379914213 
930	 0,168434579753104 
931	 0,168858163660593 
932	 0,16891716373933 
933	 0,16933356777263 
934	 0,169848688692973 
935	 0,170055341617823 
936	 0,170751009528492 
937	 0,171346360604598 
938	 0,169580036058846 
939	 0,168664660274335 
940	 0,169500016248204 
941	 0,169638766595886 
942	 0,169285763982137 
943	 0,168825798630552 
944	 0,169189550525843 
945	 0,169658961548607 
946	 0,168588361935131 
947	 0,168236361180816 
948	 0,168525366948319 
949	 0,166541356972709 
950	 0,165184473157001 
951	 0,165947999671674 
952	 0,166842952460724 
953	 0,166754485078042 
954	 0,164737957495185 
955	 0,163226569486719 
956	 0,163067218683948 
957	 0,165166263908619 
958	 0,165078999971107 
959	 0,162344031208944 
960	 0,162839869672492 
961	 0,163925823273012 
962	 0,163533421620362 
963	 0,163473849366251 
964	 0,163223671959489 
965	 0,161683844905848 
966	 0,161515254841677 
967	 0,16264148081255 
968	 0,162649801046868 
969	 0,162504873941116 
970	 0,162501604302058 
971	 0,162069390889425 
972	 0,161942722263296 
973	 0,162726510624562 
974	 0,163375295455717 
975	 0,1634462620396 
976	 0,162528583966999 
977	 0,161776831589236 
978	 0,161688615909681 
979	 0,162585512586751 
980	 0,163472998494376 
981	 0,164143095899601 
982	 0,167033129018265 
983	 0,168257829070618 
984	 0,164342595478197 
985	 0,163320253540794 
986	 0,165484958281634 
987	 0,168407107602032 
988	 0,168889426052717 
989	 0,167054289723735 
990	 0,167571421015327 
991	 0,167735198501968 
992	 0,16656652089863 
993	 0,166713641797265 
994	 0,168684864649453 
995	 0,172246644828787 
996	 0,170610938917475 
997	 0,167222195950006 
998	 0,171315998538352 
999	 0,172763852188644 
1000	 0,1706382118048 
1001	 0,172311702056775 
1002	 0,174077939401202 
1003	 0,174075081869455 
1004	 0,172610374334065 
1005	 0,172316109425025 
1006	 0,175286281899805 
1007	 0,17579400085958 
1008	 0,174674734510176 
1009	 0,17521487371899 
1010	 0,175552398248489 
1011	 0,175373230627581 
1012	 0,175003080146115 
1013	 0,175244847237021 
1014	 0,176497673861568 
1015	 0,17873845761103 
1016	 0,180525130329189 
1017	 0,180804601340257 
1018	 0,18192726236954 
1019	 0,183172111988352 
1020	 0,182992684179596 
1021	 0,180986399354644 
1022	 0,179532022394199 
1023	 0,185667945136263 
1024	 0,187963302407553 
1025	 0,184755361157504 
1026	 0,188579617840979 
1027	 0,189834055576508 
1028	 0,1836832331719 
1029	 0,183774407873463 
1030	 0,187791465746671 
1031	 0,190956560018945 
1032	 0,189420346865291 
1033	 0,186622537392018 
1034	 0,191139231042195 
1035	 0,195530567503532 
1036	 0,19611051217223 
1037	 0,187192466643874 
1038	 0,184456066229141 
1039	 0,191644640484901 
1040	 0,186872286434208 
1041	 0,180715882594436 
1042	 0,182812764194105 
1043	 0,188170656689503 
1044	 0,193501210615377 
1045	 0,195138592361731 
1046	 0,195007603597875 
1047	 0,197155850444119 
1048	 0,21037221607224 
1049	 0,210684004525502 
1050	 0,197483674219308 
1051	 0,199016932353758 
1052	 0,201471933876486 
1053	 0,198869024290999 
1054	 0,198521844672153 
1055	 0,199820835916624 
1056	 0,201382096320313 
1057	 0,199977237176427 
1058	 0,196455009138688 
1059	 0,193217810223966 
1060	 0,19652094974423 
1061	 0,203441476896225 
1062	 0,20488729921417 
1063	 0,200277861414837 
1064	 0,194431053341967 
1065	 0,205978987069203 
1066	 0,21415164170705 
1067	 0,209214781250245 
1068	 0,193570908288642 
1069	 0,186438550173801 
1070	 0,200606384911708 
1071	 0,208788279200545 
1072	 0,213269502756592 
1073	 0,219014052968641 
1074	 0,211540243513206 
1075	 0,197321634726391 
