Wavelength	SCORFF200790.asd
325	 1,70733714809208E-02 
326	 9,19201738334858E-02 
327	 0,151517835788504 
328	 0,209970186272095 
329	 0,244087958223731 
330	 0,221549040879849 
331	 0,127030796486863 
332	 0,166931748748828 
333	 0,249520949761844 
334	 0,135136580014132 
335	 0,05569281083507 
336	 0,089515208026137 
337	 5,06070092954681E-02 
338	-1,74165575749159E-02 
339	-0,034021777114175 
340	 2,81219345758519E-02 
341	 0,108074049344286 
342	 0,121812030776333 
343	 0,130062972839894 
344	 0,136682755330947 
345	 8,43136809593023E-02 
346	 4,84827186621101E-02 
347	 0,104876194142475 
348	 0,088708019814736 
349	 3,50164386711116E-02 
350	 9,49810147786919E-02 
351	 0,143507164616947 
352	 0,123197236216697 
353	 7,74696737863149E-02 
354	 3,39574036247252E-02 
355	 2,21897318103779E-02 
356	 4,60622520113323E-02 
357	 7,74739947502647E-02 
358	 5,34961984612865E-02 
359	 3,15462615389689E-02 
360	 3,12482566804007E-02 
361	 7,23262909986817E-03 
362	-5,50843551212317E-03 
363	 4,77037120869172E-02 
364	 6,25595539704192E-02 
365	 3,97694103513516E-02 
366	 6,30728000911052E-02 
367	 7,77177094097208E-02 
368	 5,33078317135132E-02 
369	 2,26955655206776E-02 
370	 5,33268569450222E-03 
371	 3,23530078683023E-02 
372	 4,42900609675406E-02 
373	 3,20079240428403E-02 
374	 3,46249187938767E-02 
375	 3,82485650517475E-02 
376	 3,36310732169441E-02 
377	 4,32725457833038E-02 
378	 5,77193755671823E-02 
379	 5,32921580612534E-02 
380	 3,81175258570896E-02 
381	 2,07326456817256E-02 
382	 3,26971818321841E-02 
383	 4,15044670516148E-02 
384	 0,018804861350662 
385	 3,92327216903222E-03 
386	 6,97951669047667E-03 
387	 3,58798473902286E-02 
388	 5,35959704147347E-02 
389	 4,54583066134337E-02 
390	 2,80620274325203E-02 
391	 1,67167305303871E-02 
392	 2,88121988674566E-02 
393	 0,023873642132251 
394	 4,77568799144811E-03 
395	 6,7508445372503E-03 
396	 0,018510905474935 
397	 3,18045525108206E-02 
398	 2,72845722984436E-02 
399	 1,90375797482054E-02 
400	 3,12605195194191E-02 
401	 3,03211172655904E-02 
402	 1,61970623413721E-02 
403	 1,95914985980096E-02 
404	 0,030857723369711 
405	 4,10655363867186E-02 
406	 0,038587591980579 
407	 2,95551792690335E-02 
408	 2,87804532486685E-02 
409	 3,35657463901198E-02 
410	 4,02400500957919E-02 
411	 3,73608989557607E-02 
412	 2,74934117242972E-02 
413	 1,46523263759395E-02 
414	 2,16024462282973E-02 
415	 3,87145265507842E-02 
416	 0,032175359126307 
417	 2,67051560895728E-02 
418	 3,02739661509652E-02 
419	 2,56072073239748E-02 
420	 0,019891844375372 
421	 2,39509013950048E-02 
422	 0,026508066163788 
423	 2,60789226239142E-02 
424	 2,71558626500246E-02 
425	 2,71736966326698E-02 
426	 2,50690955956563E-02 
427	 2,57590040089701E-02 
428	 2,67861480635522E-02 
429	 2,18042065996661E-02 
430	 2,46215436591877E-02 
431	 3,49395823508007E-02 
432	 3,38479358789959E-02 
433	 2,85068351147112E-02 
434	 2,61256104437435E-02 
435	 2,72514229550522E-02 
436	 0,030259801582264 
437	 3,07445605982105E-02 
438	 3,05312033863716E-02 
439	 3,03157271479964E-02 
440	 0,030428544682711 
441	 2,99487053400006E-02 
442	 2,77040647711513E-02 
443	 2,55191096423324E-02 
444	 2,44891568019151E-02 
445	 2,65889297888545E-02 
446	 2,81415559947572E-02 
447	 2,70512902277164E-02 
448	 2,63111928095951E-02 
449	 2,69770306967105E-02 
450	 3,03911267447081E-02 
451	 3,17506087598845E-02 
452	 3,02645110055487E-02 
453	 3,04342853511318E-02 
454	 2,96738160045386E-02 
455	 2,57820948462725E-02 
456	 2,56253455857184E-02 
457	 2,81885849231881E-02 
458	 2,68740353636595E-02 
459	 0,026892531601593 
460	 2,96754060609711E-02 
461	 0,030228686212713 
462	 2,94043758383078E-02 
463	 2,89774537157316E-02 
464	 2,86170515100876E-02 
465	 2,83005197967146E-02 
466	 2,78731396225521E-02 
467	 2,78309542750172E-02 
468	 2,85126234728606E-02 
469	 3,01070076976602E-02 
470	 3,12070053522589E-02 
471	 2,87834325867909E-02 
472	 2,81851671033792E-02 
473	 3,06094235870876E-02 
474	 3,29183289153642E-02 
475	 3,34151812255136E-02 
476	 0,030806072068974 
477	 2,89299689493421E-02 
478	 2,86187455651013E-02 
479	 2,98493356806552E-02 
480	 2,99519626067161E-02 
481	 2,81721573353276E-02 
482	 2,91816640376756E-02 
483	 3,10257361928227E-02 
484	 3,01482179288213E-02 
485	 2,94694278197283E-02 
486	 0,029782908039739 
487	 3,09292816640869E-02 
488	 3,22196001989943E-02 
489	 3,30745860235944E-02 
490	 3,36954793149534E-02 
491	 3,37246189835062E-02 
492	 3,21938248973711E-02 
493	 3,07856149677349E-02 
494	 3,03256140159221E-02 
495	 3,14524145498264E-02 
496	 3,22559068949233E-02 
497	 3,06294780610762E-02 
498	 3,10682514463846E-02 
499	 3,31606861960566E-02 
500	 3,24465844808974E-02 
501	 3,15475799633658E-02 
502	 3,18325967687979E-02 
503	 3,15191817903548E-02 
504	 0,031306361010196 
505	 3,27453669971806E-02 
506	 3,45987655319358E-02 
507	 3,59698553682346E-02 
508	 3,50696532196673E-02 
509	 3,34266246448341E-02 
510	 3,25554939481704E-02 
511	 3,27684608897942E-02 
512	 3,38512557875411E-02 
513	 3,52613989838219E-02 
514	 3,57826146201047E-02 
515	 0,035013859057296 
516	 3,44215997345968E-02 
517	 0,034161957935717 
518	 3,41818505041932E-02 
519	 3,48497419128702E-02 
520	 3,58882754526679E-02 
521	 3,62193027103278E-02 
522	 3,57028497799703E-02 
523	 3,44996382493967E-02 
524	 3,52632712656872E-02 
525	 3,71547134974676E-02 
526	 3,75291720373844E-02 
527	 3,69002535727071E-02 
528	 3,57054249760147E-02 
529	 3,54583117609954E-02 
530	 3,60597441630842E-02 
531	 3,72142110008286E-02 
532	 3,66201565635647E-02 
533	 3,49704719031797E-02 
534	 3,61646703490642E-02 
535	 0,037686978734416 
536	 3,80025953555855E-02 
537	 3,74801498080566E-02 
538	 3,68160827275302E-02 
539	 3,71767118648701E-02 
540	 3,75968684858004E-02 
541	 3,78068442351295E-02 
542	 3,80583874219538E-02 
543	 3,82329946222214E-02 
544	 3,82288744950737E-02 
545	 3,85706484950411E-02 
546	 0,039065001708558 
547	 3,89149873570356E-02 
548	 3,84982730766388E-02 
549	 0,038138920141957 
550	 3,87011843667861E-02 
551	 3,94600102100495E-02 
552	 3,91331305937368E-02 
553	 3,91881403154512E-02 
554	 3,98027091965475E-02 
555	 3,99393240567504E-02 
556	 3,99867843735922E-02 
557	 4,02804801301323E-02 
558	 4,06020038894633E-02 
559	 4,08842752122016E-02 
560	 4,11243207285745E-02 
561	 4,10019437063796E-02 
562	 4,05079225932398E-02 
563	 4,04927357949717E-02 
564	 4,04533679604703E-02 
565	 3,96239907781968E-02 
566	 3,93448896829043E-02 
567	 3,98975430813854E-02 
568	 4,09874440935528E-02 
569	 4,19247906864848E-02 
570	 0,042207089414661 
571	 4,21085947932997E-02 
572	 4,20376137130688E-02 
573	 4,28101254420615E-02 
574	 4,31908293186159E-02 
575	 4,29708999893376E-02 
576	 4,35809218973638E-02 
577	 4,42673110406081E-02 
578	 4,41040946094667E-02 
579	 4,41966741919936E-02 
580	 0,044637561986763 
581	 4,49707423259019E-02 
582	 4,48953360419745E-02 
583	 4,43646181225264E-02 
584	 4,44436760389571E-02 
585	 4,51214466133428E-02 
586	 4,62200839296081E-02 
587	 4,61622505123182E-02 
588	 4,50551185531283E-02 
589	 4,58239065111036E-02 
590	 4,68360790858229E-02 
591	 4,65280453188352E-02 
592	 4,69607754582475E-02 
593	 4,78183309387707E-02 
594	 4,71174539302334E-02 
595	 4,65250616094422E-02 
596	 4,67580550130415E-02 
597	 4,69749071544041E-02 
598	 4,71186092659211E-02 
599	 0,047239814275069 
600	 4,73471142724839E-02 
601	 0,047448037201557 
602	 4,76241034535367E-02 
603	 4,75079431235392E-02 
604	 4,68858715965613E-02 
605	 4,67835530500595E-02 
606	 4,70578965933701E-02 
607	 4,69154928529175E-02 
608	 4,67334482849516E-02 
609	 4,66163461553102E-02 
610	 4,63594550403211E-02 
611	 4,62998909476488E-02 
612	 4,68557873190721E-02 
613	 4,65005241418007E-02 
614	 4,54767910218376E-02 
615	 4,58866562908328E-02 
616	 4,65193992923896E-02 
617	 0,046568570614784 
618	 4,61063867682718E-02 
619	 4,58515294434268E-02 
620	 4,73155023083894E-02 
621	 4,79492525622427E-02 
622	 4,71805128372457E-02 
623	 0,04672043604697 
624	 4,66457763116331E-02 
625	 4,69113775303548E-02 
626	 4,70814185800124E-02 
627	 4,70951638392259E-02 
628	 4,71140946504549E-02 
629	 4,71591538175907E-02 
630	 0,047252363452109 
631	 4,74274944361744E-02 
632	 4,75756909875386E-02 
633	 4,75087513701988E-02 
634	 4,75623093711649E-02 
635	 4,78927643174072E-02 
636	 4,87678815725437E-02 
637	 4,92793647857439E-02 
638	 4,87232027773104E-02 
639	 4,83226966657977E-02 
640	 0,04846468720668 
641	 4,95958741376494E-02 
642	 0,050247915379225 
643	 4,99428690704296E-02 
644	 4,99749600444828E-02 
645	 0,050316895008831 
646	 5,07733920694803E-02 
647	 5,06888993806301E-02 
648	 5,01490058071787E-02 
649	 0,050052812168545 
650	 5,02371477881762E-02 
651	 5,04846099757695E-02 
652	 4,98059112799351E-02 
653	 4,88473608769779E-02 
654	 4,92611192575843E-02 
655	 0,049402036767833 
656	 4,89250114609169E-02 
657	 4,90561976293724E-02 
658	 4,90761720021738E-02 
659	 4,82134166495498E-02 
660	 4,76427652544778E-02 
661	 4,74714862926402E-02 
662	 4,72609611429494E-02 
663	 4,68336540174832E-02 
664	 4,62082791087358E-02 
665	 4,63244202080251E-02 
666	 4,66362375594917E-02 
667	 4,61010126998136E-02 
668	 4,62098677978094E-02 
669	 4,69643837267731E-02 
670	 4,67060177578412E-02 
671	 4,61033206259658E-02 
672	 4,57746219331252E-02 
673	 4,60721551754398E-02 
674	 4,66250896978563E-02 
675	 4,63927114367054E-02 
676	 4,60778220669609E-02 
677	 4,59540880773979E-02 
678	 4,59932185070017E-02 
679	 4,62217444110798E-02 
680	 4,66607084080021E-02 
681	 4,70367296676052E-02 
682	 4,73067527263098E-02 
683	 4,76222135152115E-02 
684	 4,78071855068506E-02 
685	 0,047829433820292 
686	 4,82995404627938E-02 
687	 0,048946150726394 
688	 4,91016606692805E-02 
689	 4,97385282854907E-02 
690	 5,09714128804657E-02 
691	 5,19826468484473E-02 
692	 5,27300500648865E-02 
693	 5,32682143044007E-02 
694	 5,45050074347324E-02 
695	 5,63094648814778E-02 
696	 5,79030653712147E-02 
697	 5,94078276263679E-02 
698	 6,09120302155847E-02 
699	 6,28207485723055E-02 
700	 6,47755651337298E-02 
701	 6,62777421238207E-02 
702	 6,79764403113275E-02 
703	 6,99527031511553E-02 
704	 7,19316987344331E-02 
705	 7,38428750748235E-02 
706	 7,56197074108875E-02 
707	 7,71721011004151E-02 
708	 7,86478444364876E-02 
709	 8,03213325448846E-02 
710	 8,20744277134394E-02 
711	 8,37469441938106E-02 
712	 8,48314549703314E-02 
713	 8,57336294538775E-02 
714	 8,68507632945018E-02 
715	 8,80457315885794E-02 
716	 8,91940999225073E-02 
717	 9,00561501832663E-02 
718	 9,07500141754186E-02 
719	 9,13591185063602E-02 
720	 9,19926224322383E-02 
721	 9,28344073380355E-02 
722	 9,40965426497845E-02 
723	 0,094536816506418 
724	 9,42606611262989E-02 
725	 9,46526518199894E-02 
726	 0,095373318839548 
727	 9,61441422360451E-02 
728	 9,64556254330589E-02 
729	 9,65089247357922E-02 
730	 9,67932317852566E-02 
731	 9,71854260889729E-02 
732	 9,76230859383464E-02 
733	 9,79525257620034E-02 
734	 9,82624266339958E-02 
735	 9,86130363123594E-02 
736	 0,098623084768348 
737	 9,85548489244328E-02 
738	 9,92869101941298E-02 
739	 9,96990209617583E-02 
740	 9,94590907424137E-02 
741	 9,92773773935508E-02 
742	 9,94164331109511E-02 
743	 0,100084782277005 
744	 0,100332058331552 
745	 0,10018634813195 
746	 0,100519163324248 
747	 0,100684472517502 
748	 0,100430086786176 
749	 0,100535482425486 
750	 0,100808512691872 
751	 0,100801886843769 
752	 0,101045452936258 
753	 0,101516878013863 
754	 0,101579602738907 
755	 0,101655438956604 
756	 0,102008258116349 
757	 0,101979303703934 
758	 0,101817977380034 
759	 0,102229444896022 
760	 0,102672887523402 
761	 0,102921121496474 
762	 0,102807195550324 
763	 0,102706621173161 
764	 0,102979252033055 
765	 0,103505605710265 
766	 0,103983338305648 
767	 0,103658166461789 
768	 0,10358480190951 
769	 0,104062299597225 
770	 0,104117084545465 
771	 0,10402014737243 
772	 0,104183541872521 
773	 0,104584584167596 
774	 0,105047531216436 
775	 0,105084345065773 
776	 0,104957696755491 
777	 0,104831659801699 
778	 0,104822958538087 
779	 0,104837028072496 
780	 0,104704418758225 
781	 0,104759712985097 
782	 0,105059656421335 
783	 0,10551748640626 
784	 0,105744157013054 
785	 0,105539931431137 
786	 0,105560948709034 
787	 0,105792512972441 
788	 0,106039137140754 
789	 0,106153392084246 
790	 0,106141156933513 
791	 0,106326640433189 
792	 0,106321267939485 
793	 0,105884895573546 
794	 0,105927748311371 
795	 0,106384715871979 
796	 0,106813290469308 
797	 0,106981876517616 
798	 0,106888278833556 
799	 0,107075962889071 
800	 0,107285528958065 
801	 0,10726499216412 
802	 0,107347821661118 
803	 0,107523878477404 
804	 0,107583169683492 
805	 0,107796716311557 
806	 0,108159738552277 
807	 0,108074768054023 
808	 0,10801321325739 
809	 0,10848246021783 
810	 0,108458861311968 
811	 0,108159816386038 
812	 0,108857176903343 
813	 0,109225277122302 
814	 0,108798012413662 
815	 0,108406538063465 
816	 0,108304714931629 
817	 0,108683178780426 
818	 0,108936266504323 
819	 0,108999686484571 
820	 0,109173640223764 
821	 0,109307853142999 
822	 0,109325975239952 
823	 0,109204757857481 
824	 0,109046571905388 
825	 0,108986089523709 
826	 0,109507536544006 
827	 0,110317417107333 
828	 0,110199753884739 
829	 0,109717648003856 
830	 0,109252416281439 
831	 0,10921123087582 
832	 0,109400278503872 
833	 0,109476355262847 
834	 0,110132087189768 
835	 0,111038498308057 
836	 0,110631118200682 
837	 0,110195420578869 
838	 0,110406335137224 
839	 0,110634494153162 
840	 0,110775926576928 
841	 0,110781672947601 
842	 0,110738666169157 
843	 0,110670984675928 
844	 0,110583391391599 
845	 0,110386607429547 
846	 0,110115782622942 
847	 0,110310825749507 
848	 0,110756613881235 
849	 0,111062802196922 
850	 0,111369602005428 
851	 0,111595492710047 
852	 0,111468488711732 
853	 0,111046513973732 
854	 0,110478529132536 
855	 0,110403596665622 
856	 0,110705767471688 
857	 0,111110630785002 
858	 0,111286526981089 
859	 0,111155626049557 
860	 0,110807053286891 
861	 0,110530080905878 
862	 0,110509258012652 
863	 0,110754386486608 
864	 0,111002250608604 
865	 0,110924485179556 
866	 0,111090138479643 
867	 0,111508149806897 
868	 0,111889045512114 
869	 0,111682294109588 
870	 0,110855623254473 
871	 0,11096000921395 
872	 0,111544133584953 
873	 0,111875537146066 
874	 0,112070419274576 
875	 0,112086716942834 
876	 0,111687200808107 
877	 0,111901006753057 
878	 0,112946728040591 
879	 0,113330142753811 
880	 0,113292044260677 
881	 0,113226433621618 
882	 0,112978413056389 
883	 0,112676838989889 
884	 0,112576225244059 
885	 0,113084128600215 
886	 0,114060976100907 
887	 0,114084768983752 
888	 0,11347724713462 
889	 0,112740420996872 
890	 0,11314645594853 
891	 0,114174960517036 
892	 0,114189576936788 
893	 0,113771748418888 
894	 0,113332427903067 
895	 0,113994207579092 
896	 0,11418885499684 
897	 0,11290179932496 
898	 0,113016415855534 
899	 0,113973056856504 
900	 0,114017167858509 
901	 0,11324805825108 
902	 0,112251352922995 
903	 0,113225702431772 
904	 0,113985587426884 
905	 0,113338714729222 
906	 0,113498698509363 
907	 0,113737896678833 
908	 0,112684467246953 
909	 0,112172867553319 
910	 0,112611260901271 
911	 0,1139006381834 
912	 0,11439440633037 
913	 0,113513802227839 
914	 0,113093730865988 
915	 0,113347131382419 
916	 0,114224786574875 
917	 0,113945872964562 
918	 0,113046689778327 
919	 0,113910686211648 
920	 0,11451026870305 
921	 0,114221367972182 
922	 0,113681037585409 
923	 0,113054320939186 
924	 0,112599528737487 
925	 0,113493264053613 
926	 0,114976912123656 
927	 0,115458623654634 
928	 0,11450239133426 
929	 0,112830120126341 
930	 0,113532930646165 
931	 0,11468732424967 
932	 0,11510714971102 
933	 0,115299714512111 
934	 0,115050278997187 
935	 0,114117193587897 
936	 0,114821437473796 
937	 0,116567874642277 
938	 0,116189096137965 
939	 0,115757949310552 
940	 0,115896736697529 
941	 0,115600099674641 
942	 0,115289977294485 
943	 0,115369389638564 
944	 0,115696466245456 
945	 0,11563899139692 
946	 0,1140321162089 
947	 0,113884093106611 
948	 0,11521747420569 
949	 0,114660596169361 
950	 0,114066597347524 
951	 0,114389058855021 
952	 0,114518672585779 
953	 0,114138090305885 
954	 0,113089716412497 
955	 0,113471589951104 
956	 0,114786152265486 
957	 0,114574493528014 
958	 0,114377546548058 
959	 0,114462596311561 
960	 0,113520537462359 
961	 0,113324100929503 
962	 0,114943787049883 
963	 0,115411448771325 
964	 0,114697013534391 
965	 0,113451909000256 
966	 0,113442626400395 
967	 0,114520618226568 
968	 0,114623592095642 
969	 0,114648184399576 
970	 0,114839549516753 
971	 0,114686757755195 
972	 0,113969931478537 
973	 0,112738817163653 
974	 0,113596217762611 
975	 0,114782074807716 
976	 0,112350862627026 
977	 0,112100231370151 
978	 0,114272369647083 
979	 0,113824433877465 
980	 0,113442375407204 
981	 0,114420816514534 
982	 0,116283742374311 
983	 0,117524543637586 
984	 0,116823048563518 
985	 0,116378860626237 
986	 0,116367750906769 
987	 0,116281587806085 
988	 0,11603228508378 
989	 0,115829776144124 
990	 0,116689473138006 
991	 0,116810980436669 
992	 0,115658641074549 
993	 0,116080890584362 
994	 0,117318474971888 
995	 0,118176196362811 
996	 0,116708139363892 
997	 0,115014589820825 
998	 0,117903273802157 
999	 0,118847934977438 
1000	 0,117391702716179 
1001	 0,119126543981815 
1002	 0,119776725244653 
1003	 0,117964425936644 
1004	 0,118677357740485 
1005	 0,120541497583615 
1006	 0,121731076447946 
1007	 0,121734442595386 
1008	 0,121456007531514 
1009	 0,122795430363443 
1010	 0,120265198591093 
1011	 0,115000313883412 
1012	 0,115129202020956 
1013	 0,117382111830424 
1014	 0,120314388130614 
1015	 0,125076803521572 
1016	 0,125663740269539 
1017	 0,118591579596098 
1018	 0,119598266011627 
1019	 0,124316983267682 
1020	 0,12286022454365 
1021	 0,121548260836214 
1022	 0,12228222806264 
1023	 0,126875097390087 
1024	 0,127091615265749 
1025	 0,121867387765478 
1026	 0,120610089221437 
1027	 0,121421832789115 
1028	 0,12275285218696 
1029	 0,12425460882756 
1030	 0,124182969997306 
1031	 0,121129144540017 
1032	 0,121440925872266 
1033	 0,124455173149995 
1034	 0,126241390092345 
1035	 0,125918385969108 
1036	 0,124603285263299 
1037	 0,127964871963879 
1038	 0,128868721646463 
1039	 0,124705466790076 
1040	 0,119606332704796 
1041	 0,118477017064319 
1042	 0,123862638881821 
1043	 0,122971071281105 
1044	 0,119975611864105 
1045	 0,122819354051148 
1046	 0,123567696637526 
1047	 0,125600194221372 
1048	 0,140979776712912 
1049	 0,145134259442111 
1050	 0,134573761646696 
1051	 0,125831330371622 
1052	 0,123226084935419 
1053	 0,127370508592937 
1054	 0,127291838775956 
1055	 0,127665993290413 
1056	 0,132594290509856 
1057	 0,138107246477727 
1058	 0,13851558009613 
1059	 0,127434935205696 
1060	 0,127597232565728 
1061	 0,13509323256855 
1062	 0,129672713495985 
1063	 0,124623109045299 
1064	 0,124455613988152 
1065	 0,131491056416024 
1066	 0,132543941905168 
1067	 0,1237597846196 
1068	 0,118335909288947 
1069	 0,119411100820694 
1070	 0,127663493613864 
1071	 0,133719846581799 
1072	 0,138724287920908 
1073	 0,144391831301886 
1074	 0,140351998994258 
1075	 0,131763446008445 
