Wavelength	SCORFF200209.asd
325	 0,369906348746247 
326	 0,451293585442716 
327	 0,427034336956297 
328	 0,306059293360854 
329	 0,279268656136213 
330	 0,311801598166247 
331	 0,368130473569804 
332	 0,344961963441994 
333	 0,293357731554987 
334	 0,347681672803005 
335	 0,342801725861709 
336	 0,268209515135745 
337	 0,287075102777499 
338	 0,301125908558988 
339	 0,210551813965309 
340	 0,245726176767461 
341	 0,332552777634101 
342	 0,274831496058177 
343	 0,272778029507033 
344	 0,344740785064337 
345	 0,317783657340116 
346	 0,261604947470382 
347	 0,250829937613227 
348	 0,261821425445433 
349	 0,284627658351535 
350	 0,316274243383092 
351	 0,331756741509647 
352	 0,31809801043745 
353	 0,287197982084752 
354	 0,272929666005172 
355	 0,315959673562822 
356	 0,328197233496106 
357	 0,302591098653176 
358	 0,28363155758259 
359	 0,278557459392968 
360	 0,286508254215998 
361	 0,262500185151355 
362	 0,254803050079333 
363	 0,33645880488909 
364	 0,360498216176208 
365	 0,319817769640374 
366	 0,296053632873656 
367	 0,292892823556252 
368	 0,308187209993031 
369	 0,310877744221754 
370	 0,305110748823786 
371	 0,307236167484234 
372	 0,3084949626567 
373	 0,309733688231534 
374	 0,325576344638551 
375	 0,328733806952145 
376	 0,30326778151088 
377	 0,300556268303689 
378	 0,309061733757199 
379	 0,283320315422987 
380	 0,275402910021062 
381	 0,297779800611209 
382	 0,319676612682763 
383	 0,327113170062561 
384	 0,312558640174454 
385	 0,29745660301936 
386	 0,292554391723892 
387	 0,313086627406101 
388	 0,329131294860831 
389	 0,32620666204671 
390	 0,302256242453068 
391	 0,28481391932944 
392	 0,307678014522835 
393	 0,310704034242322 
394	 0,295458788294107 
395	 0,307926911569063 
396	 0,319472920944659 
397	 0,316428387683649 
398	 0,30462973423144 
399	 0,294606534880542 
400	 0,299397373228771 
401	 0,303249587265002 
402	 0,302161972753541 
403	 0,297354083380573 
404	 0,298482718220253 
405	 0,310108271291891 
406	 0,312324362497905 
407	 0,30776089189072 
408	 0,306738532780215 
409	 0,308659397756909 
410	 0,31210997485123 
411	 0,310889463760917 
412	 0,307776682408721 
413	 0,30567840916328 
414	 0,30499489033419 
415	 0,305559355794087 
416	 0,306685489125376 
417	 0,307530952863932 
418	 0,307918939469226 
419	 0,309961971153497 
420	 0,311157714943031 
421	 0,308141900827056 
422	 0,307043821584711 
423	 0,307929927049143 
424	 0,30578540496452 
425	 0,304837528261102 
426	 0,307128042095814 
427	 0,307205967254569 
428	 0,306230511155984 
429	 0,307453889041847 
430	 0,310138692077574 
431	 0,313377262205492 
432	 0,314754266225168 
433	 0,314175643856665 
434	 0,311921615155114 
435	 0,311946514493604 
436	 0,313290435246677 
437	 0,311608180127381 
438	 0,309586865186812 
439	 0,308430288616057 
440	 0,308212165044973 
441	 0,308828156242955 
442	 0,310099508398757 
443	 0,311171648256956 
444	 0,312097193420733 
445	 0,314293677161475 
446	 0,315049330553729 
447	 0,31294273202005 
448	 0,311027875335084 
449	 0,310175469004799 
450	 0,310957260282707 
451	 0,312776748777419 
452	 0,314989999063347 
453	 0,316210693608809 
454	 0,316378961953698 
455	 0,31556013082576 
456	 0,314121380475813 
457	 0,312972677343436 
458	 0,314247282766781 
459	 0,314551198698815 
460	 0,313165734963987 
461	 0,315724318649844 
462	 0,318189189059743 
463	 0,314634244145986 
464	 0,312514904539228 
465	 0,313089254230379 
466	 0,313508081152558 
467	 0,314393006472935 
468	 0,315984580264201 
469	 0,317169879264046 
470	 0,317695008272039 
471	 0,317372621691861 
472	 0,317221751155753 
473	 0,31738827766733 
474	 0,31673487278813 
475	 0,315705414508438 
476	 0,314816143057159 
477	 0,314385824895401 
478	 0,314371203834531 
479	 0,314577146258321 
480	 0,313946272324383 
481	 0,312489739074517 
482	 0,313904119863808 
483	 0,316507626268745 
484	 0,317376166056798 
485	 0,316921995399243 
486	 0,315940102538344 
487	 0,316947671043045 
488	 0,318729069325035 
489	 0,320108878068138 
490	 0,319485569328677 
491	 0,31786817134576 
492	 0,318325376940843 
493	 0,317757959994774 
494	 0,315532009042728 
495	 0,313791401810158 
496	 0,313831135756844 
497	 0,3167923568976 
498	 0,317910886412866 
499	 0,316823441189797 
500	 0,316110778895533 
501	 0,315764737679401 
502	 0,315852580539236 
503	 0,316232191548267 
504	 0,317147377097469 
505	 0,319195774067856 
506	 0,320364051380267 
507	 0,319995870179578 
508	 0,318162139185368 
509	 0,316970204585472 
510	 0,318164274131174 
511	 0,318915417779154 
512	 0,318865810390965 
513	 0,318471346919304 
514	 0,318782761528013 
515	 0,319960032768683 
516	 0,319791342441314 
517	 0,318752990236206 
518	 0,317761239635328 
519	 0,318229149337701 
520	 0,320087983463445 
521	 0,321848836517998 
522	 0,322257098665192 
523	 0,320668339856828 
524	 0,32003166741851 
525	 0,320628821328213 
526	 0,322129888416691 
527	 0,32252422239138 
528	 0,321415856283808 
529	 0,321277551144482 
530	 0,321431192977628 
531	 0,320895481944575 
532	 0,320253624658796 
533	 0,31969688874319 
534	 0,319251295958319 
535	 0,319500325440732 
536	 0,320537506683937 
537	 0,320033630814495 
538	 0,319091333052065 
539	 0,320338349409415 
540	 0,321423858913565 
541	 0,321583461099852 
542	 0,320842714185446 
543	 0,320559572654008 
544	 0,321973761611144 
545	 0,323292928607547 
546	 0,323858096677901 
547	 0,322953961985204 
548	 0,322289429237876 
549	 0,322662947079059 
550	 0,322946586603519 
551	 0,323134448390482 
552	 0,323429253420004 
553	 0,323548992992202 
554	 0,323578888609463 
555	 0,324189407460828 
556	 0,324840679867387 
557	 0,325024383252702 
558	 0,324290758421821 
559	 0,32328703337741 
560	 0,323807460486037 
561	 0,324283647339006 
562	 0,324109467212688 
563	 0,323666990288465 
564	 0,323534176012268 
565	 0,324417858205726 
566	 0,324476810721492 
567	 0,3239315532048 
568	 0,325382478053309 
569	 0,326810740637348 
570	 0,326840337850486 
571	 0,326825326462071 
572	 0,326970293399614 
573	 0,327181786901309 
574	 0,327793776584183 
575	 0,328817582521511 
576	 0,329688818669698 
577	 0,330321581035751 
578	 0,330686705234123 
579	 0,331086818628253 
580	 0,331701838932124 
581	 0,332878142902272 
582	 0,333738103074393 
583	 0,333864386979025 
584	 0,334305113652658 
585	 0,33508267232402 
586	 0,336090787813328 
587	 0,335847934315718 
588	 0,334597621694779 
589	 0,335539313153594 
590	 0,33700534492661 
591	 0,337348234282307 
592	 0,337957816755726 
593	 0,338798298765816 
594	 0,339050670900944 
595	 0,339435275734335 
596	 0,340184441305951 
597	 0,340539803229561 
598	 0,340488494168014 
599	 0,340123729953163 
600	 0,340050448837881 
601	 0,340277973488679 
602	 0,340057593203802 
603	 0,339695700041462 
604	 0,339472803295724 
605	 0,339650138010721 
606	 0,339869326768455 
607	 0,339120649572015 
608	 0,338503068978197 
609	 0,338336453939298 
610	 0,337839923780449 
611	 0,337187857765151 
612	 0,336668331661326 
613	 0,336319350265703 
614	 0,336209569468875 
615	 0,336536574616485 
616	 0,336714631429476 
617	 0,336401592949084 
618	 0,336182846390633 
619	 0,336170152697432 
620	 0,336390105476262 
621	 0,33677763187821 
622	 0,337143372474849 
623	 0,336888208273307 
624	 0,336192126323833 
625	 0,3353200327804 
626	 0,335163410530307 
627	 0,335575283428182 
628	 0,335471120339664 
629	 0,335476057651446 
630	 0,335864382370274 
631	 0,336245665606328 
632	 0,336626319563166 
633	 0,337110950757305 
634	 0,337317497548346 
635	 0,337364792425313 
636	 0,338211538001826 
637	 0,339121222129448 
638	 0,339458408479177 
639	 0,339651579718716 
640	 0,339991129188316 
641	 0,341134168857332 
642	 0,341606432091643 
643	 0,341088643568192 
644	 0,341657974322028 
645	 0,342641203669368 
646	 0,342921727022252 
647	 0,343031129748011 
648	 0,342913442178519 
649	 0,341990033821322 
650	 0,340988713613479 
651	 0,340374851731257 
652	 0,339467566710881 
653	 0,338554654897971 
654	 0,338468743421253 
655	 0,338025596937921 
656	 0,336981625130565 
657	 0,336318448960878 
658	 0,335653626049628 
659	 0,334558027856599 
660	 0,333767097285281 
661	 0,333226309986761 
662	 0,332300344180732 
663	 0,331353061613908 
664	 0,330644186151338 
665	 0,33066635918425 
666	 0,330742898830872 
667	 0,329741620924114 
668	 0,329009965817478 
669	 0,328752000277364 
670	 0,32810385354088 
671	 0,32756818756807 
672	 0,327540731828395 
673	 0,327614751385579 
674	 0,327621522254837 
675	 0,327272273272846 
676	 0,327333376243387 
677	 0,327958638207471 
678	 0,328245550728763 
679	 0,328331017574386 
680	 0,328472147695067 
681	 0,328517072309473 
682	 0,328694240092986 
683	 0,329814787105979 
684	 0,330837995494597 
685	 0,33123494512688 
686	 0,332116186926709 
687	 0,333448185729059 
688	 0,334887896664505 
689	 0,336563195358541 
690	 0,338552122866626 
691	 0,340956651992215 
692	 0,343945986922342 
693	 0,347645381917087 
694	 0,351701906089227 
695	 0,356017334734447 
696	 0,360531020153055 
697	 0,365557843894551 
698	 0,371164269158385 
699	 0,376846974644344 
700	 0,382738789292013 
701	 0,389087410328162 
702	 0,395045035253573 
703	 0,400520409991987 
704	 0,406062389319334 
705	 0,411513698668222 
706	 0,416786095121985 
707	 0,422031035420962 
708	 0,427104207270182 
709	 0,43170988228095 
710	 0,435882769568719 
711	 0,439728317845921 
712	 0,443611603537922 
713	 0,447344931919929 
714	 0,450732440661674 
715	 0,453714944904327 
716	 0,456496585436633 
717	 0,459712176204734 
718	 0,462383404924715 
719	 0,464199810448092 
720	 0,465963164585768 
721	 0,467881342958893 
722	 0,470109061786197 
723	 0,472106653052978 
724	 0,473627715610139 
725	 0,474360095641604 
726	 0,475115381770295 
727	 0,476365612531107 
728	 0,477380664455818 
729	 0,478258446374218 
730	 0,479362918952955 
731	 0,480344999482368 
732	 0,481077280109868 
733	 0,481458878052311 
734	 0,48208070844225 
735	 0,483355231481471 
736	 0,483616669089619 
737	 0,483321246631191 
738	 0,484421779357936 
739	 0,485263740561717 
740	 0,485359572772942 
741	 0,485687676809586 
742	 0,486095646661475 
743	 0,486327380531444 
744	 0,486833040301004 
745	 0,48746766681351 
746	 0,487478618853383 
747	 0,487484965753639 
748	 0,487805940420689 
749	 0,488120454146731 
750	 0,488481984867982 
751	 0,489037616119111 
752	 0,489363775850342 
753	 0,489453674056283 
754	 0,489783891767425 
755	 0,490054297955407 
756	 0,490100240826848 
757	 0,490573562468276 
758	 0,491277318764332 
759	 0,491598133215512 
760	 0,492020824458784 
761	 0,492621178475666 
762	 0,493003628393632 
763	 0,493402882803167 
764	 0,494042750176561 
765	 0,49466614879896 
766	 0,495126666177493 
767	 0,495134036614487 
768	 0,495386074547129 
769	 0,496066772283553 
770	 0,496436915680571 
771	 0,496570957614153 
772	 0,496636555492129 
773	 0,496770146606286 
774	 0,496961122474533 
775	 0,497044705331189 
776	 0,497103109006939 
777	 0,497161248882026 
778	 0,497106018423163 
779	 0,496972514438748 
780	 0,496829514237434 
781	 0,496645512229477 
782	 0,496533399360705 
783	 0,496926413922859 
784	 0,497162793818647 
785	 0,496866429991342 
786	 0,496809539734675 
787	 0,497041930728662 
788	 0,497470205967083 
789	 0,497597256959744 
790	 0,49744518604892 
791	 0,497847565555668 
792	 0,498285242040742 
793	 0,498344291909066 
794	 0,498432033477781 
795	 0,498575315309756 
796	 0,498682198703197 
797	 0,498825469674322 
798	 0,499027397827998 
799	 0,499259403098269 
800	 0,499539145474178 
801	 0,499859820319185 
802	 0,499837235172849 
803	 0,49966648699317 
804	 0,500023577008463 
805	 0,500384522762664 
806	 0,500589162436076 
807	 0,500887134924667 
808	 0,501145068872772 
809	 0,501215565043733 
810	 0,501323111088316 
811	 0,501548590720725 
812	 0,502021818444984 
813	 0,502225805225246 
814	 0,502037927338633 
815	 0,502229919911202 
816	 0,502460079687184 
817	 0,502267232288189 
818	 0,502638026489922 
819	 0,503355458017422 
820	 0,50309034673745 
821	 0,502803540522983 
822	 0,50301859786649 
823	 0,503958258293856 
824	 0,504731417601033 
825	 0,504211651280898 
826	 0,504550670441475 
827	 0,505743472612763 
828	 0,506081200185646 
829	 0,506182530059476 
830	 0,506334161691735 
831	 0,506292381215555 
832	 0,506326437594716 
833	 0,506809241742708 
834	 0,507685306755571 
835	 0,508611934683836 
836	 0,508593199761356 
837	 0,50853242995324 
838	 0,508922520046053 
839	 0,509477435421839 
840	 0,509842693925703 
841	 0,5095821136742 
842	 0,509138186716743 
843	 0,508772249417044 
844	 0,508855559423501 
845	 0,509084875193529 
846	 0,509256496282557 
847	 0,50933554293369 
848	 0,509138109274046 
849	 0,508431494944147 
850	 0,508635884117023 
851	 0,509461386626707 
852	 0,508723448708127 
853	 0,507846159090786 
854	 0,507590390450453 
855	 0,507390384297153 
856	 0,5074229443248 
857	 0,507982725425598 
858	 0,508301870223056 
859	 0,508170662232806 
860	 0,50759634684642 
861	 0,507186884971027 
862	 0,507246587038869 
863	 0,507263837280949 
864	 0,507464527341382 
865	 0,508191036671783 
866	 0,508981121157684 
867	 0,509613137336013 
868	 0,509894974124726 
869	 0,509761454666921 
870	 0,509417798134629 
871	 0,510173950993993 
872	 0,511332475624735 
873	 0,511913306138107 
874	 0,512425982129194 
875	 0,51299544091209 
876	 0,513701745679575 
877	 0,514369522179724 
878	 0,514940981761508 
879	 0,515606463139573 
880	 0,51613736196441 
881	 0,516311763546825 
882	 0,516969546458311 
883	 0,517780198996999 
884	 0,517329083174075 
885	 0,517295854519933 
886	 0,518193661061425 
887	 0,519321457575213 
888	 0,51977890391239 
889	 0,518944859247301 
890	 0,519526057926089 
891	 0,520706585787285 
892	 0,519534379420953 
893	 0,518835128440924 
894	 0,519347428337761 
895	 0,520066903810357 
896	 0,520157473596643 
897	 0,519119306405074 
898	 0,518448500342503 
899	 0,518571052907366 
900	 0,51982059959496 
901	 0,519813456627493 
902	 0,518562330502629 
903	 0,518985038348547 
904	 0,519691789001685 
905	 0,519740300417109 
906	 0,519042722674194 
907	 0,518396201893492 
908	 0,518926785872059 
909	 0,519105808274863 
910	 0,518847387980604 
911	 0,519204483007899 
912	 0,519212035641038 
913	 0,518579504741287 
914	 0,518285145493642 
915	 0,518787868494741 
916	 0,520350106634117 
917	 0,520314025593738 
918	 0,51943426519546 
919	 0,521303488185114 
920	 0,52161522029772 
921	 0,519674554185988 
922	 0,519525117658349 
923	 0,520635959453537 
924	 0,522240109460329 
925	 0,522967470931013 
926	 0,522754062357698 
927	 0,521951510806827 
928	 0,522055000760949 
929	 0,523191704347219 
930	 0,523974177573399 
931	 0,524412317299811 
932	 0,524532159018624 
933	 0,524591161802873 
934	 0,524769625990182 
935	 0,525242779325811 
936	 0,52623740439922 
937	 0,527009874151804 
938	 0,525130653077573 
939	 0,524901697992267 
940	 0,527227098157056 
941	 0,527501634841802 
942	 0,526604807352272 
943	 0,525665461251201 
944	 0,525534561801831 
945	 0,525792807485389 
946	 0,525302619210429 
947	 0,525265756386735 
948	 0,525576462263305 
949	 0,524637308762719 
950	 0,523516870939247 
951	 0,522990558566514 
952	 0,523631540861469 
953	 0,524360964981872 
954	 0,523860063092171 
955	 0,523303861857758 
956	 0,523012324222623 
957	 0,523322863338884 
958	 0,522197624329535 
959	 0,51980537384061 
960	 0,520262747286718 
961	 0,521400324215063 
962	 0,521476522744643 
963	 0,521549629941096 
964	 0,52163801941173 
965	 0,52159991021142 
966	 0,521196154624149 
967	 0,520668982016417 
968	 0,520877861616282 
969	 0,521333449107819 
970	 0,521700481457608 
971	 0,521559152543069 
972	 0,520889099049452 
973	 0,519870705434712 
974	 0,52024932723508 
975	 0,521266797652293 
976	 0,520999835907607 
977	 0,521701779731374 
978	 0,522941657117554 
979	 0,520872233462106 
980	 0,520329625757324 
981	 0,523140997941719 
982	 0,52499994333239 
983	 0,524815554631769 
984	 0,522315096856769 
985	 0,522962753102841 
986	 0,526030952104525 
987	 0,528085909977462 
988	 0,527584999631855 
989	 0,525278796261888 
990	 0,525726285583894 
991	 0,527687320056271 
992	 0,529826918700552 
993	 0,528334102426313 
994	 0,526447429643013 
995	 0,527688805250502 
996	 0,528875768744144 
997	 0,529402302452849 
998	 0,529184467439917 
999	 0,529996641057683 
1000	 0,531594941174838 
1001	 0,531040081965867 
1002	 0,530789786194114 
1003	 0,532029535642967 
1004	 0,533753785087751 
1005	 0,535579867738246 
1006	 0,537037997565255 
1007	 0,53641839682217 
1008	 0,535352077573183 
1009	 0,537204401635213 
1010	 0,537294007947566 
1011	 0,535225449667051 
1012	 0,533649704377328 
1013	 0,534034422356504 
1014	 0,536339759372209 
1015	 0,536440585575778 
1016	 0,535647371762228 
1017	 0,535360257120456 
1018	 0,535992740014463 
1019	 0,536317975020849 
1020	 0,534488737411364 
1021	 0,533929560215647 
1022	 0,53551591837329 
1023	 0,539550642326076 
1024	 0,540789172938984 
1025	 0,538416630356884 
1026	 0,538066760972923 
1027	 0,539392908353374 
1028	 0,541640666194433 
1029	 0,541796711786244 
1030	 0,541239072927975 
1031	 0,541888096939405 
1032	 0,541744042651687 
1033	 0,540717848332962 
1034	 0,539242621441658 
1035	 0,541135530170257 
1036	 0,544767567667183 
1037	 0,539605111230772 
1038	 0,539843799356453 
1039	 0,548124121739996 
1040	 0,542283341762203 
1041	 0,535667106470074 
1042	 0,539801629728056 
1043	 0,54589411060832 
1044	 0,54845978074947 
1045	 0,542406760464644 
1046	 0,548219668688968 
1047	 0,560791153704786 
1048	 0,556380589747213 
1049	 0,553638650629651 
1050	 0,555087446542111 
1051	 0,548545436953085 
1052	 0,542974029193124 
1053	 0,543406998925075 
1054	 0,551249123371771 
1055	 0,557931930743143 
1056	 0,556409153823066 
1057	 0,554305328285689 
1058	 0,549897642262848 
1059	 0,540494209608197 
1060	 0,547203259217494 
1061	 0,562021243044159 
1062	 0,557683533423228 
1063	 0,547518034153554 
1064	 0,539890909545221 
1065	 0,550334007690586 
1066	 0,55598163883685 
1067	 0,549324722299224 
1068	 0,550450064481543 
1069	 0,5547831896016 
1070	 0,557098579911619 
1071	 0,555349018335881 
1072	 0,551706819840899 
1073	 0,549422852399565 
1074	 0,553510263069909 
1075	 0,559664170277625 
