Wavelength	SCORFF200457.asd
325	 0,4970101023114 
326	 0,356898698790282 
327	 0,321856185760306 
328	 0,40317616713808 
329	 0,364254337656953 
330	 0,304104637522867 
331	 0,294563182429291 
332	 0,332935321526686 
333	 0,352564129560453 
334	 0,200404905351631 
335	 0,202339955653708 
336	 0,378803813571573 
337	 0,396708149039444 
338	 0,301701831311817 
339	 0,157262611982972 
340	 0,240163986863991 
341	 0,402331008907426 
342	 0,322180759746782 
343	 0,297035689285359 
344	 0,36977854356135 
345	 0,311202080305233 
346	 0,250507391512744 
347	 0,319235410389476 
348	 0,327818421961037 
349	 0,293961144959191 
350	 0,344586419982876 
351	 0,370326977321449 
352	 0,334341912360262 
353	 0,32177461108912 
354	 0,320395029376942 
355	 0,311760048291379 
356	 0,326082828687821 
357	 0,352475324103136 
358	 0,353521115092532 
359	 0,350779159067672 
360	 0,347722910422645 
361	 0,297954818131996 
362	 0,251641249338891 
363	 0,287006564056134 
364	 0,314052255319427 
365	 0,318993612235031 
366	 0,320884593320583 
367	 0,329990575104443 
368	 0,347740605564301 
369	 0,329212043561819 
370	 0,296452885566869 
371	 0,303908452567213 
372	 0,311169881906057 
373	 0,30893654846373 
374	 0,306789991147172 
375	 0,308267837549173 
376	 0,315636975333368 
377	 0,325756847733232 
378	 0,333924959350599 
379	 0,332846668073554 
380	 0,337628131909433 
381	 0,348324792170629 
382	 0,337633390615462 
383	 0,325710577927333 
384	 0,330129746221554 
385	 0,322361766331694 
386	 0,311818935707243 
387	 0,338189859683322 
388	 0,350670641241772 
389	 0,334094311764341 
390	 0,325653558718069 
391	 0,328980707296217 
392	 0,34468611631359 
393	 0,339656165442088 
394	 0,318427067363394 
395	 0,316730167724048 
396	 0,322886885823261 
397	 0,329919744806893 
398	 0,330403792849859 
399	 0,331106835104943 
400	 0,344329432304331 
401	 0,344781552993841 
402	 0,332070238819228 
403	 0,327552096164194 
404	 0,334947388795843 
405	 0,352444923462623 
406	 0,343322262848353 
407	 0,322262083680153 
408	 0,329119808453443 
409	 0,336923018527837 
410	 0,338724993811742 
411	 0,341924202094145 
412	 0,342208747297016 
413	 0,336023319797883 
414	 0,337638782757526 
415	 0,343638727042809 
416	 0,338709689429431 
417	 0,334727223369369 
418	 0,336070503679801 
419	 0,336958485594905 
420	 0,338182362025494 
421	 0,341384825964222 
422	 0,341413640074659 
423	 0,338678010760293 
424	 0,338344159890834 
425	 0,338268601978381 
426	 0,337336594175187 
427	 0,337595662211396 
428	 0,338029701391735 
429	 0,335983168659191 
430	 0,338078075170676 
431	 0,343686146984465 
432	 0,341480910413772 
433	 0,3383843701912 
434	 0,340551199235911 
435	 0,340550038141063 
436	 0,338117214412635 
437	 0,335297625328729 
438	 0,335284171756252 
439	 0,338614269992663 
440	 0,338881061041302 
441	 0,338730238047895 
442	 0,342214904726674 
443	 0,341167850054106 
444	 0,336960212105306 
445	 0,340727658907451 
446	 0,344651548716609 
447	 0,343981425944457 
448	 0,341891567882041 
449	 0,340992947509557 
450	 0,345399585766798 
451	 0,348251084540474 
452	 0,347608354064054 
453	 0,345602193463755 
454	 0,344134920635877 
455	 0,344750388103603 
456	 0,344709875553236 
457	 0,344139556249778 
458	 0,344589946089886 
459	 0,346530830233468 
460	 0,349590927308657 
461	 0,350351727650807 
462	 0,34935684787837 
463	 0,347796484767703 
464	 0,347769462862819 
465	 0,34926736173374 
466	 0,349745145277548 
467	 0,351203544924207 
468	 0,354380116107699 
469	 0,353941773801953 
470	 0,351045577890997 
471	 0,348984294134001 
472	 0,350376438479666 
473	 0,35485584403429 
474	 0,35627621833685 
475	 0,355160749100908 
476	 0,352512490481688 
477	 0,350307819091983 
478	 0,349303232798582 
479	 0,350120425091078 
480	 0,350314485049958 
481	 0,349244708312251 
482	 0,351538209770755 
483	 0,354361546859778 
484	 0,35294682155693 
485	 0,352040332277668 
486	 0,352661679368566 
487	 0,353447232299361 
488	 0,354317206265261 
489	 0,355074941510074 
490	 0,354425482686916 
491	 0,353075846622987 
492	 0,353099626696821 
493	 0,352979018415197 
494	 0,352198817890658 
495	 0,350625267069514 
496	 0,349911875593787 
497	 0,351836960925214 
498	 0,353351576396335 
499	 0,353992641000665 
500	 0,354895752552812 
501	 0,355231685809777 
502	 0,354765749166316 
503	 0,355354860670026 
504	 0,356715002558047 
505	 0,357986726644914 
506	 0,358754311195335 
507	 0,358811718466339 
508	 0,358000655562541 
509	 0,357518084334105 
510	 0,358392281448378 
511	 0,359687290172203 
512	 0,360676909303975 
513	 0,360067240498014 
514	 0,359359683786051 
515	 0,359161276801336 
516	 0,358720266026294 
517	 0,357996563379522 
518	 0,356973412130611 
519	 0,357462232850224 
520	 0,359174748499912 
521	 0,359269389176841 
522	 0,359368645251805 
523	 0,360480589046821 
524	 0,35975563158701 
525	 0,358310773567487 
526	 0,359673375278107 
527	 0,360666198198954 
528	 0,360410092436582 
529	 0,36049213070946 
530	 0,360739452585226 
531	 0,360822954415835 
532	 0,360028305138538 
533	 0,358655064919854 
534	 0,357989318386532 
535	 0,358012004725134 
536	 0,358572783468088 
537	 0,358408658036551 
538	 0,357952411986948 
539	 0,358321586144525 
540	 0,358921645249215 
541	 0,359410073980536 
542	 0,359126408459024 
543	 0,358769009698018 
544	 0,359033242840005 
545	 0,35924508915373 
546	 0,359631597538192 
547	 0,36143745290785 
548	 0,362197631281624 
549	 0,361040946181936 
550	 0,361204215100156 
551	 0,362015082458848 
552	 0,361834810625724 
553	 0,361860923724865 
554	 0,362267043115472 
555	 0,362506747984995 
556	 0,362369484985421 
557	 0,361739389146307 
558	 0,361205155196449 
559	 0,361049557916184 
560	 0,361754709784201 
561	 0,361986684868009 
562	 0,361370404508494 
563	 0,361376554609018 
564	 0,361703247764586 
565	 0,361769804069901 
566	 0,362061706797108 
567	 0,362712677017574 
568	 0,363722942710306 
569	 0,365025578349867 
570	 0,366470097736129 
571	 0,367154103070748 
572	 0,367567454657052 
573	 0,3690874822611 
574	 0,370648211723603 
575	 0,371873437727698 
576	 0,37300119080171 
577	 0,373719228682688 
578	 0,373709025109931 
579	 0,374294699532566 
580	 0,375474326829825 
581	 0,376184401558945 
582	 0,376807111164449 
583	 0,377556067036893 
584	 0,378366364602409 
585	 0,379298656193916 
586	 0,380566624985751 
587	 0,3807932343939 
588	 0,380112328463381 
589	 0,381120276089658 
590	 0,382393622982916 
591	 0,382536784786155 
592	 0,382727805410923 
593	 0,383136796512295 
594	 0,383666062642124 
595	 0,383841887870553 
596	 0,383542817804613 
597	 0,383647753435172 
598	 0,383950236333869 
599	 0,383989050777953 
600	 0,384210313200174 
601	 0,384473265292251 
602	 0,383751918800782 
603	 0,383153818758508 
604	 0,383508237255973 
605	 0,383716496202913 
606	 0,383479069345641 
607	 0,382477346687795 
608	 0,381796377884142 
609	 0,381789703472222 
610	 0,381650244251312 
611	 0,381421463192819 
612	 0,381244556459248 
613	 0,380465538886313 
614	 0,379528183721468 
615	 0,380431729725578 
616	 0,381303882415584 
617	 0,380975283575641 
618	 0,380507914002302 
619	 0,380356806586195 
620	 0,381151986926386 
621	 0,381599131858187 
622	 0,381392910754558 
623	 0,381381586409101 
624	 0,381574243435924 
625	 0,381914921675568 
626	 0,382049052719098 
627	 0,382022966719406 
628	 0,382186012756589 
629	 0,382538065558803 
630	 0,383046861720343 
631	 0,383445514382508 
632	 0,383698109121425 
633	 0,383777075770846 
634	 0,384277506582851 
635	 0,38535947533129 
636	 0,386944063818827 
637	 0,388071544080725 
638	 0,388029135450027 
639	 0,388497913880067 
640	 0,389519375625071 
641	 0,390414160069115 
642	 0,391001947853528 
643	 0,391256554488391 
644	 0,391795047863296 
645	 0,39223241987532 
646	 0,392002289388176 
647	 0,391860496504634 
648	 0,391810030394598 
649	 0,391115499965492 
650	 0,390472466714897 
651	 0,390310355484482 
652	 0,390003115645049 
653	 0,389477884524171 
654	 0,38875247767913 
655	 0,388253052325682 
656	 0,388063815346099 
657	 0,387814550591478 
658	 0,387335988638845 
659	 0,386499443090117 
660	 0,38581438267636 
661	 0,38528711347073 
662	 0,384524849635009 
663	 0,383997259779426 
664	 0,383811398889166 
665	 0,382962305555677 
666	 0,381853453925381 
667	 0,381272080557151 
668	 0,380917771931699 
669	 0,380644385656124 
670	 0,380164641285864 
671	 0,379756055965907 
672	 0,37963307278386 
673	 0,379449852133873 
674	 0,379388131215461 
675	 0,380139392862725 
676	 0,380381876944106 
677	 0,379866609738503 
678	 0,380145925656609 
679	 0,381113660163191 
680	 0,382470743553509 
681	 0,383384543867419 
682	 0,383894718944832 
683	 0,38479487159851 
684	 0,386220480656897 
685	 0,388200168078777 
686	 0,390148318347113 
687	 0,392070285061536 
688	 0,394101486394625 
689	 0,396703095314095 
690	 0,39992280022007 
691	 0,403275345135981 
692	 0,406683746561826 
693	 0,410097224809555 
694	 0,413474049243661 
695	 0,417028528035031 
696	 0,421312387545993 
697	 0,425834973897933 
698	 0,430267755024668 
699	 0,434053258144228 
700	 0,43775832582031 
701	 0,442172886395093 
702	 0,446600157824291 
703	 0,450797440096265 
704	 0,454661016452981 
705	 0,458220319487529 
706	 0,461560231076229 
707	 0,465206347079963 
708	 0,468902867150722 
709	 0,472017312858595 
710	 0,474934868390616 
711	 0,477844027794001 
712	 0,48091780905961 
713	 0,484176672312696 
714	 0,487575429034324 
715	 0,49027827886801 
716	 0,492499113513077 
717	 0,495294537630995 
718	 0,497796670443969 
719	 0,499686196534889 
720	 0,501309899547361 
721	 0,502973961794138 
722	 0,505017992677976 
723	 0,506813317322934 
724	 0,50826626947508 
725	 0,509593837412765 
726	 0,511035675303652 
727	 0,512685471398011 
728	 0,513961552773291 
729	 0,514976551285267 
730	 0,516096158692011 
731	 0,517017409648647 
732	 0,517700252491248 
733	 0,518257943472872 
734	 0,51918692119805 
735	 0,520812713546336 
736	 0,521603324702384 
737	 0,521834875572644 
738	 0,522966434831821 
739	 0,523929496146263 
740	 0,524349486578594 
741	 0,524477627686331 
742	 0,524616228948897 
743	 0,525081289157279 
744	 0,525434446173304 
745	 0,52570335746093 
746	 0,526297781409364 
747	 0,526853462212859 
748	 0,527208779302646 
749	 0,527713004993761 
750	 0,528276614608346 
751	 0,528712738262437 
752	 0,528928036321473 
753	 0,529040859084666 
754	 0,529585261221021 
755	 0,530171371364615 
756	 0,530526012669549 
757	 0,530924779272887 
758	 0,53151965212793 
759	 0,532575814001918 
760	 0,533319446482404 
761	 0,533577408380086 
762	 0,533868987151967 
763	 0,534463555213598 
764	 0,535537180049946 
765	 0,536208114933978 
766	 0,536518633502671 
767	 0,537026840212285 
768	 0,537738547664276 
769	 0,538547727336478 
770	 0,538769275867323 
771	 0,538764694743139 
772	 0,539021193609568 
773	 0,539048873241329 
774	 0,538925857194637 
775	 0,539196596475413 
776	 0,539471042734129 
777	 0,539554611860962 
778	 0,539622172432749 
779	 0,539664232317517 
780	 0,539639196187874 
781	 0,539696332414366 
782	 0,539840410824053 
783	 0,539948636514439 
784	 0,539950476898868 
785	 0,539844975317496 
786	 0,54003135071287 
787	 0,54038049250886 
788	 0,540560524340364 
789	 0,540748941100872 
790	 0,540999056019032 
791	 0,541322772676824 
792	 0,541677700909792 
793	 0,542026362054949 
794	 0,542357442146709 
795	 0,542708263717692 
796	 0,543185040631968 
797	 0,543508094411682 
798	 0,543686980718465 
799	 0,544270457242172 
800	 0,544826335303695 
801	 0,544942707415822 
802	 0,54502494549175 
803	 0,545137518904794 
804	 0,545150328434872 
805	 0,54564226201317 
806	 0,546613730524724 
807	 0,546806053545332 
808	 0,546827184286956 
809	 0,547380586059277 
810	 0,547282095692562 
811	 0,546796463242223 
812	 0,547341508699428 
813	 0,547782024098508 
814	 0,547685796457079 
815	 0,547558450079629 
816	 0,54746112180938 
817	 0,547423950487797 
818	 0,54771915972237 
819	 0,548236681540462 
820	 0,548459334078722 
821	 0,548718060034402 
822	 0,549152604173923 
823	 0,549670439370765 
824	 0,549964572833125 
825	 0,549677972198111 
826	 0,549802665215261 
827	 0,550421728980206 
828	 0,550964532514883 
829	 0,551472474889149 
830	 0,551912431290344 
831	 0,55209406809998 
832	 0,552155996675782 
833	 0,552311145274782 
834	 0,55267514723973 
835	 0,553321846841295 
836	 0,554435112549078 
837	 0,555235328774172 
838	 0,555321757763418 
839	 0,555331424514947 
840	 0,555319886027792 
841	 0,555255065571238 
842	 0,555236447213921 
843	 0,555202294334398 
844	 0,554740086808375 
845	 0,554849292227125 
846	 0,55586193620567 
847	 0,556010750069793 
848	 0,555510184396509 
849	 0,554966206935819 
850	 0,555018931293951 
851	 0,555486000121287 
852	 0,55507740584917 
853	 0,554830971536738 
854	 0,555188657065153 
855	 0,555075799624356 
856	 0,554764871813736 
857	 0,554783387509911 
858	 0,554651310452256 
859	 0,554404298507869 
860	 0,554498030570399 
861	 0,554681633532477 
862	 0,554803248230437 
863	 0,554782509066404 
864	 0,554776165415771 
865	 0,55499691623539 
866	 0,555495230785004 
867	 0,556064088299164 
868	 0,555987440944123 
869	 0,556291073380102 
870	 0,557288706284732 
871	 0,557667892619611 
872	 0,557667381074342 
873	 0,557756133125629 
874	 0,55893300248139 
875	 0,560578323286412 
876	 0,560244382769592 
877	 0,559925895875281 
878	 0,560494128667556 
879	 0,561661415882516 
880	 0,562778909163322 
881	 0,563176510816041 
882	 0,563261632711951 
883	 0,563230200002782 
884	 0,563281216765179 
885	 0,563741916055296 
886	 0,564528750514062 
887	 0,564507198399759 
888	 0,564378741413131 
889	 0,564825908922746 
890	 0,565147013380377 
891	 0,5651217859629 
892	 0,564512520737153 
893	 0,564159625044462 
894	 0,564391218833649 
895	 0,565259128389579 
896	 0,565717541179283 
897	 0,565016451025527 
898	 0,564217699558644 
899	 0,563812953823442 
900	 0,564355840549694 
901	 0,564242435871887 
902	 0,563391012644744 
903	 0,563409383629829 
904	 0,563552285503694 
905	 0,563345172641929 
906	 0,56299423794627 
907	 0,562588904780154 
908	 0,562229845626072 
909	 0,561933397346927 
910	 0,561903972193566 
911	 0,562887590680974 
912	 0,563073804588689 
913	 0,561878063481955 
914	 0,561370410824169 
915	 0,561671523112353 
916	 0,562646497704673 
917	 0,563463578441245 
918	 0,564060458017624 
919	 0,564976530627461 
920	 0,56494816478428 
921	 0,563878857836427 
922	 0,563388943213101 
923	 0,563696877156112 
924	 0,56478712771746 
925	 0,565267626922546 
926	 0,565308922677173 
927	 0,565671342615913 
928	 0,566192288459538 
929	 0,566756885472548 
930	 0,567058420982718 
931	 0,567325969689186 
932	 0,567636332278891 
933	 0,567439694805649 
934	 0,567438936361974 
935	 0,568548075805066 
936	 0,569448094210097 
937	 0,569625368746462 
938	 0,568446376157384 
939	 0,568050677957616 
940	 0,568950826967243 
941	 0,5689809365963 
942	 0,568345480426334 
943	 0,567447318721095 
944	 0,56739285560918 
945	 0,56763810979377 
946	 0,566774367712858 
947	 0,566625806362513 
948	 0,567073719741177 
949	 0,565835923067008 
950	 0,564020667757456 
951	 0,562514884899357 
952	 0,562253967225801 
953	 0,562776589577277 
954	 0,56330942280053 
955	 0,56215922681993 
956	 0,560361784246879 
957	 0,56176551966783 
958	 0,561525274896254 
959	 0,558886282680024 
960	 0,558475027971037 
961	 0,558804700429584 
962	 0,558611167547122 
963	 0,558373026585991 
964	 0,557749313123243 
965	 0,556193838905811 
966	 0,555992719778914 
967	 0,557011257970926 
968	 0,556970452044222 
969	 0,556509243957313 
970	 0,556132381996129 
971	 0,557387812477595 
972	 0,557712711583554 
973	 0,555171994149603 
974	 0,555692076279365 
975	 0,55816189306356 
976	 0,558806943839849 
977	 0,558584907667678 
978	 0,557980600502812 
979	 0,557770710709499 
980	 0,558934687173017 
981	 0,561391672405071 
982	 0,561739325876442 
983	 0,560792061458711 
984	 0,559883669969463 
985	 0,560987174569835 
986	 0,563452646260096 
987	 0,565285627901554 
988	 0,565349724622333 
989	 0,564008162711806 
990	 0,563920844569022 
991	 0,564632232282382 
992	 0,565831039410877 
993	 0,567003169450446 
994	 0,567964547449633 
995	 0,568586686979676 
996	 0,568617629842014 
997	 0,568472695184912 
998	 0,569022171691586 
999	 0,569197100945723 
1000	 0,56925108576245 
1001	 0,571460804034173 
1002	 0,57166986060921 
1003	 0,568975748601266 
1004	 0,571027765656186 
1005	 0,57433251593081 
1006	 0,574993771003968 
1007	 0,575514469934648 
1008	 0,576664658732685 
1009	 0,579175953407627 
1010	 0,578231087360743 
1011	 0,574570967876939 
1012	 0,574594716990466 
1013	 0,577362740287988 
1014	 0,581242866955226 
1015	 0,580396325358433 
1016	 0,577613126302552 
1017	 0,575977785132392 
1018	 0,577522107656867 
1019	 0,58065625189274 
1020	 0,582447303391095 
1021	 0,57906621808433 
1022	 0,573347699789599 
1023	 0,575595538062529 
1024	 0,577541463735411 
1025	 0,577358949703544 
1026	 0,579857754950741 
1027	 0,58381683173278 
1028	 0,587669743549582 
1029	 0,587383688857259 
1030	 0,585626421405968 
1031	 0,586013327846094 
1032	 0,587166712764296 
1033	 0,587910957622332 
1034	 0,5861856333378 
1035	 0,588941452992798 
1036	 0,594155571615016 
1037	 0,586915334930069 
1038	 0,583879673261744 
1039	 0,590039586954747 
1040	 0,588904704649052 
1041	 0,584443230832674 
1042	 0,581433637255001 
1043	 0,583959614636865 
1044	 0,588421356062574 
1045	 0,589089083765271 
1046	 0,590954586081187 
1047	 0,594312921553283 
1048	 0,597529880456351 
1049	 0,595724190901322 
1050	 0,589375048437349 
1051	 0,586434584249151 
1052	 0,588262983666028 
1053	 0,594678620836183 
1054	 0,601193692546977 
1055	 0,603497896685515 
1056	 0,599423177775062 
1057	 0,599491653837542 
1058	 0,600889784616567 
1059	 0,5976134208773 
1060	 0,594719748128814 
1061	 0,592475585387443 
1062	 0,588611985839583 
1063	 0,589288245363455 
1064	 0,595089249364443 
1065	 0,600928458832498 
1066	 0,606197287131155 
1067	 0,608423801619043 
1068	 0,597956185450419 
1069	 0,589884954474928 
1070	 0,596032480157277 
1071	 0,603418188183207 
1072	 0,605714946748288 
1073	 0,598888927077247 
1074	 0,609198370220488 
1075	 0,621737991056062 
