Wavelength	SCORFF200144.asd
325	 7,79234256963008E-02 
326	 0,273422410287689 
327	 0,274598211253923 
328	 0,089936663523909 
329	 0,222479364544595 
330	 0,308113522210495 
331	 9,45807732418611E-02 
332	 8,61571182701412E-02 
333	 0,197730881157638 
334	 7,60534047379969E-02 
335	 4,18157096073265E-02 
336	 0,150547893717293 
337	 0,153711316851796 
338	 0,078917755371705 
339	-3,05014613380774E-02 
340	-7,07251105329751E-02 
341	-3,92425161479419E-02 
342	 4,09362536097068E-02 
343	 0,129830103795064 
344	 0,17224362971801 
345	 0,10857671693314 
346	 4,27409928970749E-02 
347	 7,94201911474026E-02 
348	 0,117297178750594 
349	 0,134912978503276 
350	 0,137640993187656 
351	 0,118081913573282 
352	 8,49005381530224E-02 
353	 7,07342875066262E-02 
354	 6,94025961303713E-02 
355	 7,41899826746839E-02 
356	 6,20341406400708E-02 
357	 4,29425864580032E-02 
358	 5,29634541205799E-02 
359	 6,76812367844679E-02 
360	 7,05450559609423E-02 
361	 8,83418832114626E-03 
362	-3,91121969208076E-02 
363	 0,04428700769579 
364	 9,33517179087618E-02 
365	 0,086705501632235 
366	 7,33083006855242E-02 
367	 5,79032342979485E-02 
368	 4,38309510867099E-02 
369	 2,62733493995506E-02 
370	 1,30903998739171E-02 
371	 2,29392631560383E-02 
372	 1,40199075053863E-02 
373	-7,46529285020876E-03 
374	 3,98088621963435E-02 
375	 7,21396120509203E-02 
376	 0,035843685652807 
377	 2,74037756805219E-02 
378	 4,19460001885808E-02 
379	 3,60879175575317E-02 
380	 2,17293093995769E-02 
381	 7,8144514126027E-03 
382	 2,29670153323103E-02 
383	 0,043076696498416 
384	 4,61943045718767E-02 
385	 3,58242430120287E-02 
386	 2,37091577007873E-02 
387	 3,88523286853463E-02 
388	 4,67485033866768E-02 
389	 3,59309385407832E-02 
390	 2,39870817513523E-02 
391	 2,19641417969934E-02 
392	 4,13553600046815E-02 
393	 0,030644277666624 
394	-4,93422658726717E-04 
395	 1,22220334717332E-02 
396	 2,85784001028152E-02 
397	 2,95556530591381E-02 
398	 2,81221673273735E-02 
399	 2,71564165609453E-02 
400	 2,92235970653661E-02 
401	 2,37075871073466E-02 
402	 1,25328172744808E-02 
403	 9,76123117914925E-03 
404	 1,68707100575971E-02 
405	 0,031548262817786 
406	 2,70716117364136E-02 
407	 1,37573149359543E-02 
408	 0,019705447003543 
409	 2,72384598839297E-02 
410	 3,06102669990867E-02 
411	 3,01751643055473E-02 
412	 2,45738872135528E-02 
413	 1,34892844121507E-02 
414	 0,015536830131895 
415	 2,53321127635501E-02 
416	 0,021063944649561 
417	 1,67913386322667E-02 
418	 1,75251602683501E-02 
419	 1,67149266714228E-02 
420	 1,49487348173511E-02 
421	 1,35890473315357E-02 
422	 1,71000515251191E-02 
423	 2,34798943661937E-02 
424	 2,42816190473665E-02 
425	 0,020704806720958 
426	 1,44394682582775E-02 
427	 0,013331618685837 
428	 1,58528082068519E-02 
429	 1,71959074369756E-02 
430	 0,018614031090157 
431	 1,97408588561057E-02 
432	 1,82564972639879E-02 
433	 1,72084819640358E-02 
434	 1,91780834228992E-02 
435	 2,10265813871611E-02 
436	 2,12296260760334E-02 
437	 1,69237187602032E-02 
438	 0,015726276709368 
439	 1,94076344388711E-02 
440	 1,73612283996651E-02 
441	 1,43939874936922E-02 
442	 1,76383371091211E-02 
443	 1,73824990175701E-02 
444	 1,40497776897678E-02 
445	 1,71779426797727E-02 
446	 1,95444866835375E-02 
447	 1,71360543494601E-02 
448	 1,61798309967332E-02 
449	 1,69190564383162E-02 
450	 1,82003357906161E-02 
451	 1,93023970629828E-02 
452	 1,95768380773924E-02 
453	 1,80177033395333E-02 
454	 0,01547724840507 
455	 1,29423539985485E-02 
456	 1,26326390900234E-02 
457	 1,43066709074953E-02 
458	 1,64881714063241E-02 
459	 1,64359548747661E-02 
460	 1,38917332913237E-02 
461	 1,58778761122999E-02 
462	 0,018885402172205 
463	 0,017428469766969 
464	 1,71142212165331E-02 
465	 1,80041009031565E-02 
466	 1,48844594719575E-02 
467	 1,35089705293547E-02 
468	 1,71156320108022E-02 
469	 1,81556728706127E-02 
470	 1,71750151877541E-02 
471	 1,77129988732255E-02 
472	 1,60581280312919E-02 
473	 1,25671175749791E-02 
474	 1,40558652856248E-02 
475	 1,66229693128661E-02 
476	 1,61799022377244E-02 
477	 1,57699678316582E-02 
478	 1,56984752812343E-02 
479	 1,51314691351016E-02 
480	 1,46652950575461E-02 
481	 1,46196698381011E-02 
482	 1,48598755358369E-02 
483	 1,58690781451504E-02 
484	 1,85174097432492E-02 
485	 1,80504842745736E-02 
486	 1,46625016018929E-02 
487	 0,013925635178779 
488	 1,48841803060538E-02 
489	 1,65181339439985E-02 
490	 1,68820007812269E-02 
491	 1,61226289897078E-02 
492	 1,56085307566603E-02 
493	 1,39224194249809E-02 
494	 1,12698469444275E-02 
495	 1,06517733415738E-02 
496	 1,19199620421417E-02 
497	 0,01456792730495 
498	 1,63227758187858E-02 
499	 1,66036074225603E-02 
500	 1,58410711156811E-02 
501	 1,42217186051308E-02 
502	 1,22613310518522E-02 
503	 0,012476454537192 
504	 0,01395282212013 
505	 1,45950834732474E-02 
506	 0,014824123385098 
507	 1,45888015950866E-02 
508	 1,33220745851927E-02 
509	 1,26017784980384E-02 
510	 1,37470707649653E-02 
511	 1,44780897390392E-02 
512	 1,47267141306547E-02 
513	 1,57498587434697E-02 
514	 1,58250954901401E-02 
515	 1,44433065559598E-02 
516	 1,33603478281902E-02 
517	 1,29184242428878E-02 
518	 1,32946002344277E-02 
519	 1,36758420232855E-02 
520	 1,40721000174251E-02 
521	 1,57598476683488E-02 
522	 1,62198547203984E-02 
523	 1,40008942654665E-02 
524	 1,41831842707369E-02 
525	 1,58712779849761E-02 
526	 1,52308664190819E-02 
527	 1,42547614571826E-02 
528	 1,37466484250162E-02 
529	 1,42308490251346E-02 
530	 1,53589226794546E-02 
531	 1,66582853993463E-02 
532	 1,58830522752856E-02 
533	 1,37385681257748E-02 
534	 1,40735123908882E-02 
535	 1,46785489651394E-02 
536	 1,43145737491818E-02 
537	 1,40689687862983E-02 
538	 1,40420754632049E-02 
539	 1,41850669910736E-02 
540	 1,41685599449395E-02 
541	 1,40311413755866E-02 
542	 0,014547484334185 
543	 1,49791955799859E-02 
544	 1,45911601470905E-02 
545	 1,37789808186602E-02 
546	 1,31086410049059E-02 
547	 1,39143613107855E-02 
548	 0,014454733816473 
549	 1,40017743060962E-02 
550	 1,40610455237565E-02 
551	 1,43065220770543E-02 
552	 1,39506091609182E-02 
553	 1,40478180169656E-02 
554	 1,45921603013805E-02 
555	 1,43135482552848E-02 
556	 1,39769045273273E-02 
557	 1,42278999279145E-02 
558	 1,46388756107706E-02 
559	 1,49054634524868E-02 
560	 1,44608523243031E-02 
561	 1,40503079199763E-02 
562	 1,39355038112409E-02 
563	 1,36267584331327E-02 
564	 1,32631778056993E-02 
565	 1,30744210656301E-02 
566	 1,31437161635735E-02 
567	 1,34595632144685E-02 
568	 1,39376772918677E-02 
569	 1,42410072922128E-02 
570	 1,41787158731869E-02 
571	 1,43979747058802E-02 
572	 1,48041967579319E-02 
573	 1,49171970988808E-02 
574	 1,53641301965427E-02 
575	 1,61613126645252E-02 
576	 0,01630821864565 
577	 1,59576281055349E-02 
578	 1,53909716267793E-02 
579	 1,55992950973973E-02 
580	 0,016387028791091 
581	 1,63608649831176E-02 
582	 1,61807888295282E-02 
583	 1,62166227267567E-02 
584	 0,016265068946151 
585	 1,64307297321251E-02 
586	 1,69846844640217E-02 
587	 1,69011997793444E-02 
588	 1,62712959280104E-02 
589	 1,70344858472215E-02 
590	 1,78533258185106E-02 
591	 1,74588723897096E-02 
592	 0,017311770468803 
593	 1,74570721048829E-02 
594	 1,71496047102545E-02 
595	 1,71337598539155E-02 
596	 1,76189982992056E-02 
597	 1,75322145924503E-02 
598	 1,72471583889043E-02 
599	 1,75018291170474E-02 
600	 1,74653404336171E-02 
601	 1,71128244909767E-02 
602	 1,72529383565655E-02 
603	 0,01746712402969 
604	 1,74195963929403E-02 
605	 1,74415169587917E-02 
606	 1,73086960802116E-02 
607	 1,62094269834049E-02 
608	 1,57810737540968E-02 
609	 1,63938145512443E-02 
610	 1,61053730234345E-02 
611	 1,55906381976986E-02 
612	 1,58746646718788E-02 
613	 1,53880664679846E-02 
614	 1,43589147896759E-02 
615	 1,47259868369996E-02 
616	 1,56744978383598E-02 
617	 1,64768457134627E-02 
618	 1,55508666677514E-02 
619	 1,43034328714279E-02 
620	 1,60957496878654E-02 
621	 1,68430251373692E-02 
622	 0,015760146445331 
623	 1,60900514068149E-02 
624	 1,65846137404407E-02 
625	 1,58321676510206E-02 
626	 1,55038948827406E-02 
627	 1,57715275361088E-02 
628	 1,60846402339037E-02 
629	 1,63127403183787E-02 
630	 1,63505319010632E-02 
631	 1,61422936400341E-02 
632	 1,60099569937205E-02 
633	 0,016471901055581 
634	 1,68874673811228E-02 
635	 1,70665231096999E-02 
636	 1,71522859526063E-02 
637	 1,70217194670644E-02 
638	 1,66428359105496E-02 
639	 1,69842944556382E-02 
640	 1,78560012261795E-02 
641	 1,84559100535347E-02 
642	 1,83180606908258E-02 
643	 1,75081863196107E-02 
644	 0,017794383774736 
645	 1,87678498891008E-02 
646	 1,96816986355485E-02 
647	 1,92319269940564E-02 
648	 1,78072479726601E-02 
649	 1,79459106842441E-02 
650	 1,86442472508196E-02 
651	 1,91094521695274E-02 
652	 1,86350865954759E-02 
653	 1,77791054596153E-02 
654	 1,79276738952099E-02 
655	 0,018029947186994 
656	 1,77622443941018E-02 
657	 1,73789076294638E-02 
658	 1,67541613806681E-02 
659	 1,57825183618347E-02 
660	 1,52933548870523E-02 
661	 0,015300362807045 
662	 1,53656066053828E-02 
663	 1,49573870436068E-02 
664	 1,39900495537352E-02 
665	 1,40247463866225E-02 
666	 1,46421828877701E-02 
667	 1,49220961711437E-02 
668	 0,014842786562374 
669	 1,45574325888772E-02 
670	 1,48781441524507E-02 
671	 1,50022183649699E-02 
672	 1,43653942073775E-02 
673	 1,44330879135895E-02 
674	 1,49430557260411E-02 
675	 1,46602465180001E-02 
676	 1,42482531179044E-02 
677	 1,40209558403593E-02 
678	 1,42877603842631E-02 
679	 1,48497853996362E-02 
680	 0,015430615277204 
681	 1,55364963055036E-02 
682	 1,52566823321856E-02 
683	 1,53307471989722E-02 
684	 1,53159640138874E-02 
685	 0,015037619710993 
686	 1,51700016282814E-02 
687	 1,57504597992992E-02 
688	 1,67223063257477E-02 
689	 1,73359812337486E-02 
690	 1,74817996249084E-02 
691	 1,78577015278743E-02 
692	 0,018481296620248 
693	 1,93716557540087E-02 
694	 2,09285039522381E-02 
695	 2,29753698491925E-02 
696	 2,48487385864836E-02 
697	 2,71022222276529E-02 
698	 2,99143378479659E-02 
699	 3,28535226910313E-02 
700	 3,61391017217709E-02 
701	 4,00976946408358E-02 
702	 0,044282459371443 
703	 4,86534775185004E-02 
704	 5,35774599747618E-02 
705	 5,85052501572118E-02 
706	 6,31331202192471E-02 
707	 6,80855741402043E-02 
708	 7,34048095076311E-02 
709	 0,079035939833496 
710	 8,42305675607016E-02 
711	 8,88877748836532E-02 
712	 9,37259220055544E-02 
713	 9,88452197605638E-02 
714	 0,104235411726672 
715	 0,108797837099932 
716	 0,112656570374717 
717	 0,11676804217823 
718	 0,120643744884359 
719	 0,12411591159667 
720	 0,127272128831015 
721	 0,130486491190736 
722	 0,134220444402112 
723	 0,137222986968827 
724	 0,139471229353605 
725	 0,141983556580481 
726	 0,144495043737593 
727	 0,14678723980116 
728	 0,148417927134964 
729	 0,14974783290229 
730	 0,151537848828672 
731	 0,153044077572665 
732	 0,15418201321186 
733	 0,155605130008776 
734	 0,156951133850297 
735	 0,157899557167447 
736	 0,15874495459911 
737	 0,159675867785286 
738	 0,161072583640445 
739	 0,162142786166806 
740	 0,162687428537141 
741	 0,163546955439773 
742	 0,164357458795908 
743	 0,164637034935169 
744	 0,165032712673128 
745	 0,165661243217481 
746	 0,16642373879359 
747	 0,166943328574749 
748	 0,167124893295686 
749	 0,167916153879598 
750	 0,168901985883847 
751	 0,169289724730121 
752	 0,169458698582615 
753	 0,169589319859502 
754	 0,169930160725408 
755	 0,170398042236502 
756	 0,170892711941884 
757	 0,171067613108618 
758	 0,171204387672996 
759	 0,172009068221365 
760	 0,172646738981716 
761	 0,172895596853 
762	 0,173125399874106 
763	 0,173441086426696 
764	 0,173916753308783 
765	 0,174410613094284 
766	 0,17480275739463 
767	 0,174822760058053 
768	 0,175094310760419 
769	 0,175736488090587 
770	 0,175833175885679 
771	 0,175773955417069 
772	 0,176098589343918 
773	 0,176354139511133 
774	 0,176566176457148 
775	 0,177173322493772 
776	 0,177524006168764 
777	 0,177339493985891 
778	 0,177250540541447 
779	 0,177350219178216 
780	 0,177654012256987 
781	 0,177995887889213 
782	 0,17825737913146 
783	 0,178218238608169 
784	 0,17826767714201 
785	 0,178636519729515 
786	 0,178947831518743 
787	 0,179125301514657 
788	 0,179130361389321 
789	 0,179167981268346 
790	 0,179385412092764 
791	 0,180098725882577 
792	 0,180638780541031 
793	 0,180496223127797 
794	 0,180283892912753 
795	 0,180224591491148 
796	 0,180545993362813 
797	 0,180878129516099 
798	 0,181111915744599 
799	 0,181437482984367 
800	 0,181699313491701 
801	 0,181773752339307 
802	 0,182142088804678 
803	 0,182642006795068 
804	 0,182613158923802 
805	 0,182646515569773 
806	 0,18293376139075 
807	 0,183275445116659 
808	 0,183455729360598 
809	 0,183283424468019 
810	 0,18324220903762 
811	 0,183490988889821 
812	 0,184201201723914 
813	 0,184636501687508 
814	 0,184584519574637 
815	 0,184979891609422 
816	 0,185405046684517 
817	 0,185290141298741 
818	 0,185341536578369 
819	 0,185658390896108 
820	 0,186055035966209 
821	 0,186296799795851 
822	 0,186346057408153 
823	 0,186842743121529 
824	 0,187343609994172 
825	 0,187216901862217 
826	 0,187256770991262 
827	 0,187586777823452 
828	 0,187943702667997 
829	 0,188327079646814 
830	 0,188700132487763 
831	 0,188966767588936 
832	 0,189005836791267 
833	 0,188679389415785 
834	 0,189136708643395 
835	 0,190194847085433 
836	 0,19030286318441 
837	 0,19019390106571 
838	 0,190251632448636 
839	 0,190180406271172 
840	 0,190302069960419 
841	 0,191083291282294 
842	 0,191301428399848 
843	 0,190916329242082 
844	 0,190894757467554 
845	 0,191007081345371 
846	 0,191110866551424 
847	 0,191025187485806 
848	 0,190957694905847 
849	 0,191225665897276 
850	 0,191314710000959 
851	 0,191226670129223 
852	 0,191502439543963 
853	 0,191330227236085 
854	 0,190518734078376 
855	 0,190878756893486 
856	 0,19186354875971 
857	 0,192448692967445 
858	 0,192314554903765 
859	 0,191564935625769 
860	 0,190738139096736 
861	 0,190685288364655 
862	 0,191653738948104 
863	 0,191875636003934 
864	 0,191875189377367 
865	 0,192571779989666 
866	 0,192911141197286 
867	 0,192942972680197 
868	 0,193705823554295 
869	 0,19377758720756 
870	 0,192823123391207 
871	 0,193188538706495 
872	 0,194107274570951 
873	 0,194413296826799 
874	 0,195310870837972 
875	 0,196382069401213 
876	 0,195643973006652 
877	 0,195465382375348 
878	 0,196646698012346 
879	 0,197478948104032 
880	 0,197880045599608 
881	 0,197931652256351 
882	 0,198074464310734 
883	 0,198298804939167 
884	 0,198237915604748 
885	 0,198421542264198 
886	 0,19893394123366 
887	 0,199155399471408 
888	 0,199230740821808 
889	 0,19934707963374 
890	 0,199709308084277 
891	 0,200020940724916 
892	 0,199516566210447 
893	 0,199266973635125 
894	 0,199648738928958 
895	 0,200687082642612 
896	 0,201116237875964 
897	 0,20009486965493 
898	 0,199497525525015 
899	 0,199572124565912 
900	 0,200194261352635 
901	 0,200526944164835 
902	 0,200381778366853 
903	 0,20012758437899 
904	 0,20022984369355 
905	 0,200865681119083 
906	 0,201068349963442 
907	 0,20085333779041 
908	 0,200436280767391 
909	 0,200263893211363 
910	 0,200556662667255 
911	 0,201765127443412 
912	 0,201804057428416 
913	 0,200110442388799 
914	 0,199738283978985 
915	 0,200381863714809 
916	 0,201309173698034 
917	 0,201347346357976 
918	 0,20073426683254 
919	 0,200752469419154 
920	 0,20103763524471 
921	 0,201395537152548 
922	 0,201467170215854 
923	 0,201126228374839 
924	 0,200429932767843 
925	 0,20079272506148 
926	 0,201721995675912 
927	 0,201948725773022 
928	 0,201652105040983 
929	 0,201000324657809 
930	 0,200427724518992 
931	 0,200332065573474 
932	 0,200837688127768 
933	 0,201087199398635 
934	 0,200939016115511 
935	 0,200390350146098 
936	 0,200697035225899 
937	 0,201231889966064 
938	 0,199230660517154 
939	 0,198216283293624 
940	 0,199155972143284 
941	 0,199418535258857 
942	 0,199034750801617 
943	 0,198198254887155 
944	 0,197245279046057 
945	 0,1965041280235 
946	 0,196425656559133 
947	 0,196074083746017 
948	 0,195313260031533 
949	 0,194810260008894 
950	 0,194021614625068 
951	 0,192766533603227 
952	 0,192050641709417 
953	 0,191089949744689 
954	 0,1889387276607 
955	 0,188621880672569 
956	 0,189461902735605 
957	 0,188158424172867 
958	 0,185869511174056 
959	 0,183709377042163 
960	 0,184692559207323 
961	 0,186562035935797 
962	 0,187308777175281 
963	 0,186378906783642 
964	 0,184914291279716 
965	 0,184777126180846 
966	 0,184079137786148 
967	 0,183114229433188 
968	 0,184332465490085 
969	 0,184524969285641 
970	 0,182999962546405 
971	 0,184234711280878 
972	 0,184959146608948 
973	 0,182374416683735 
974	 0,182094764610595 
975	 0,183234095786407 
976	 0,182473530936737 
977	 0,182434537292965 
978	 0,183325636500837 
979	 0,183381384342953 
980	 0,183661244691918 
981	 0,184751267583163 
982	 0,187166422570936 
983	 0,187988226121216 
984	 0,184752657227535 
985	 0,18391341052316 
986	 0,185726127991789 
987	 0,188249704587839 
988	 0,188889984295344 
989	 0,187488958162423 
990	 0,18683215424318 
991	 0,186605703924702 
992	 0,186772217425879 
993	 0,187629821348278 
994	 0,18916155471744 
995	 0,191043715928416 
996	 0,189473408929615 
997	 0,186673165498779 
998	 0,188261729625529 
999	 0,190110449926782 
1000	 0,191136581854237 
1001	 0,1918606290552 
1002	 0,192214949222698 
1003	 0,192405872050633 
1004	 0,193633285675889 
1005	 0,194794244914179 
1006	 0,194876885444706 
1007	 0,1962617574872 
1008	 0,197450254096119 
1009	 0,195122360978888 
1010	 0,195508765536771 
1011	 0,198391986905249 
1012	 0,196951797021463 
1013	 0,197547710442678 
1014	 0,201540106530398 
1015	 0,201175434372787 
1016	 0,199032274085135 
1017	 0,197941638842693 
1018	 0,199188102486226 
1019	 0,201402302377784 
1020	 0,202207772776982 
1021	 0,202095185967021 
1022	 0,201861062778016 
1023	 0,203553027577018 
1024	 0,204510992587919 
1025	 0,204285491854074 
1026	 0,205049867037403 
1027	 0,207125605783551 
1028	 0,210138703211073 
1029	 0,210512098035973 
1030	 0,209201958181621 
1031	 0,207980163754258 
1032	 0,208246118509409 
1033	 0,209938148287083 
1034	 0,212032197972903 
1035	 0,217684514950616 
1036	 0,222588066039011 
1037	 0,207698278827331 
1038	 0,202527773623933 
1039	 0,215564428790698 
1040	 0,214303624637307 
1041	 0,209534821433804 
1042	 0,211064956250336 
1043	 0,210696920778575 
1044	 0,210845068225117 
1045	 0,215695585599139 
1046	 0,216676482688492 
1047	 0,215658691202938 
1048	 0,221599585790068 
1049	 0,225911213781771 
1050	 0,2253888911317 
1051	 0,216542966830713 
1052	 0,213821599637383 
1053	 0,2219820563041 
1054	 0,223379490102108 
1055	 0,223381785869037 
1056	 0,227143606815992 
1057	 0,231394528686725 
1058	 0,228134747256547 
1059	 0,208503077895528 
1060	 0,212290237412791 
1061	 0,23073068524844 
1062	 0,224390055118078 
1063	 0,222627966797532 
1064	 0,228616491605825 
1065	 0,221824763934497 
1066	 0,21862987519703 
1067	 0,22275700380661 
1068	 0,210765502725013 
1069	 0,209912728577557 
1070	 0,235349426118739 
1071	 0,23078886484706 
1072	 0,219578346783274 
1073	 0,233479716253555 
1074	 0,240674259226846 
1075	 0,23807732242798 
