Wavelength	SCORFF200709.asd
325	 0,106623580648509 
326	 0,243392294398699 
327	 0,232793874917693 
328	 0,105290874960716 
329	 0,210508856724502 
330	 0,303788726634227 
331	 0,210144872906379 
332	 6,07418877886557E-02 
333	-1,66583139958475E-02 
334	 0,119316913979694 
335	 0,212544490706386 
336	 0,156621346170527 
337	 0,10429827200107 
338	 0,048077296185635 
339	 1,55167895037804E-02 
340	 5,02249754766068E-02 
341	 0,102056873984141 
342	 8,37971746066203E-02 
343	 8,61517268081369E-02 
344	 0,119396152418166 
345	 0,121770530523256 
346	 9,90339265597354E-02 
347	 5,97058017900636E-02 
348	 4,47690296896498E-02 
349	 5,21926658236579E-02 
350	 5,75010237129137E-02 
351	 7,53325059235022E-02 
352	 9,84321032576533E-02 
353	 8,55314581659904E-02 
354	 6,13284332220808E-02 
355	 5,52512954789548E-02 
356	 0,034369101699467 
357	 1,67843748208826E-02 
358	 0,061054030854564 
359	 9,19825466414378E-02 
360	 7,85991158802546E-02 
361	 3,83917506430924E-02 
362	 9,65947412090658E-03 
363	 4,27829334540516E-02 
364	 5,32763615121677E-02 
365	 3,88782083951769E-02 
366	 5,87878749176488E-02 
367	 7,99237337038601E-02 
368	 8,02252183656037E-02 
369	 5,13015669646035E-02 
370	 0,017103349205652 
371	 2,87048164692663E-02 
372	 2,11688856882155E-02 
373	-6,10828078261762E-03 
374	 2,77167795390378E-02 
375	 0,051000518980172 
376	 1,78398689871848E-02 
377	 2,15355237163559E-02 
378	 4,89840743093655E-02 
379	 4,30906845290894E-02 
380	 3,27609125789807E-02 
381	 2,88207663409458E-02 
382	 0,0417983470168 
383	 0,047827312301134 
384	 2,79661266423966E-02 
385	 2,87816025491866E-02 
386	 4,51715757431164E-02 
387	 4,18672487378006E-02 
388	 0,036358618880689 
389	 3,46299595581391E-02 
390	 2,89436552997185E-02 
391	 2,55013790404752E-02 
392	 0,032478953714007 
393	 2,40639683484574E-02 
394	 1,07010680101855E-02 
395	 0,044825575006551 
396	 6,08598676384753E-02 
397	 0,032876865297781 
398	 1,66960282361175E-02 
399	 1,87993696811572E-02 
400	 3,87635846354447E-02 
401	 3,56079000864884E-02 
402	 1,13143844304732E-02 
403	 1,46586948986534E-02 
404	 2,68889445610779E-02 
405	 3,29632961574387E-02 
406	 2,60553256662586E-02 
407	 1,44222209765517E-02 
408	 1,65800031928946E-02 
409	 2,14360817053227E-02 
410	 2,44105247720432E-02 
411	 2,20712483075831E-02 
412	 1,50814771430486E-02 
413	 5,12745210099832E-03 
414	 1,06872223359781E-02 
415	 2,46575402071991E-02 
416	 2,15882845707549E-02 
417	 1,88565623214477E-02 
418	 2,17082416468208E-02 
419	 1,63584935280568E-02 
420	 1,05444223507401E-02 
421	 1,53523232693627E-02 
422	 1,92147791623627E-02 
423	 1,99942693179104E-02 
424	 2,05190004284657E-02 
425	 2,03071626060036E-02 
426	 1,90237095706645E-02 
427	 1,59870954902778E-02 
428	 1,28860732729215E-02 
429	 1,22105193208625E-02 
430	 1,57938023750358E-02 
431	 2,19089222408674E-02 
432	 0,021482715225559 
433	 1,90242204940196E-02 
434	 1,88191960128148E-02 
435	 1,89104858584673E-02 
436	 1,85724524660886E-02 
437	 1,62918601869561E-02 
438	 1,59053151195237E-02 
439	 1,83651665842852E-02 
440	 1,92862270286711E-02 
441	 1,81928272491419E-02 
442	 1,50782564879815E-02 
443	 1,37050942738147E-02 
444	 1,47319926825335E-02 
445	 1,71334972262113E-02 
446	 1,78084334145025E-02 
447	 0,015260477643156 
448	 1,44381880429008E-02 
449	 1,57290831138945E-02 
450	 1,87204442410748E-02 
451	 0,019322274936762 
452	 1,69450512063344E-02 
453	 1,57357762505906E-02 
454	 1,52740967888786E-02 
455	 1,48888197324849E-02 
456	 1,26019403067245E-02 
457	 1,02545900745103E-02 
458	 1,41812876860292E-02 
459	 1,56235891364763E-02 
460	 1,20845853208756E-02 
461	 1,33208080422487E-02 
462	 1,61375886431006E-02 
463	 1,51414225846898E-02 
464	 1,35900821385795E-02 
465	 1,25956311236497E-02 
466	 1,30159826513375E-02 
467	 1,40400769692755E-02 
468	 0,014976657969874 
469	 1,53318645666853E-02 
470	 1,49349870839162E-02 
471	 1,34352828061102E-02 
472	 1,31773220793036E-02 
473	 1,46923410442212E-02 
474	 1,63696710539466E-02 
475	 1,74871571804173E-02 
476	 1,74182898970794E-02 
477	 1,56100769300326E-02 
478	 1,32322763361712E-02 
479	 1,36268285395516E-02 
480	 1,40509608410879E-02 
481	 1,32680161571609E-02 
482	 1,21147543219249E-02 
483	 1,16641373610107E-02 
484	 1,32885436674443E-02 
485	 1,55400036272108E-02 
486	 1,72784248899317E-02 
487	 1,62258600588423E-02 
488	 1,51602857407536E-02 
489	 1,60504625457792E-02 
490	 0,015727952590259 
491	 1,46444729713663E-02 
492	 1,52686061681956E-02 
493	 1,40742575319385E-02 
494	 0,010957840902849 
495	 1,19582638248459E-02 
496	 1,45260034700724E-02 
497	 1,52958949817696E-02 
498	 1,46053779709957E-02 
499	 1,33362387889749E-02 
500	 1,42804893012381E-02 
501	 1,43479672302571E-02 
502	 0,012186372821472 
503	 1,17730440162687E-02 
504	 1,27703067589286E-02 
505	 1,37571197769823E-02 
506	 1,40286314876943E-02 
507	 0,013477895799629 
508	 1,29515640415419E-02 
509	 0,012736699729486 
510	 1,30355573830106E-02 
511	 0,013470379379961 
512	 1,40321759470134E-02 
513	 0,015125310454808 
514	 1,54629621744074E-02 
515	 1,45174629758027E-02 
516	 1,27965608275545E-02 
517	 1,16121803780927E-02 
518	 0,012644515794688 
519	 1,33419652536032E-02 
520	 1,33679938310958E-02 
521	 1,44449118198112E-02 
522	 1,45481216278689E-02 
523	 1,25078978470222E-02 
524	 1,21783135277395E-02 
525	 1,34827827988517E-02 
526	 1,50509633259739E-02 
527	 1,54580971456709E-02 
528	 1,45035893757433E-02 
529	 1,47736615924873E-02 
530	 1,49578596464082E-02 
531	 1,33811306000811E-02 
532	 1,25413988350981E-02 
533	 0,012766649400186 
534	 1,31348801104096E-02 
535	 0,013551225773212 
536	 1,39171387677585E-02 
537	 1,42436902130384E-02 
538	 1,42989668844399E-02 
539	 0,013615079262635 
540	 1,32899644920396E-02 
541	 1,36067553671536E-02 
542	 1,40716109706133E-02 
543	 0,014274427249589 
544	 0,013879426476101 
545	 1,36967173785556E-02 
546	 1,38636752381139E-02 
547	 1,43745607770454E-02 
548	 1,42272250511239E-02 
549	 1,31643437002133E-02 
550	 1,31768691932573E-02 
551	 1,37758681885309E-02 
552	 1,38365932918118E-02 
553	 1,41237743594293E-02 
554	 1,46037595895724E-02 
555	 1,44474164353342E-02 
556	 1,39695753968613E-02 
557	 1,34895290366463E-02 
558	 1,33420057798806E-02 
559	 1,34672089012663E-02 
560	 1,36289418545175E-02 
561	 1,32647420768066E-02 
562	 1,23915348932957E-02 
563	 1,26960240613287E-02 
564	 1,33469989974199E-02 
565	 1,30567515939181E-02 
566	 1,29487098992862E-02 
567	 1,31398509924359E-02 
568	 1,29810492374172E-02 
569	 1,30261349683505E-02 
570	 1,35687301110096E-02 
571	 1,34070668355905E-02 
572	 1,30131613644593E-02 
573	 1,38297056485514E-02 
574	 1,46148699031675E-02 
575	 0,014961098211925 
576	 1,52841950905512E-02 
577	 1,53727636030028E-02 
578	 1,49839416601183E-02 
579	 1,46834673569051E-02 
580	 1,46344537118975E-02 
581	 1,49146763415785E-02 
582	 1,48787140142744E-02 
583	 1,42711742774843E-02 
584	 1,42137796559728E-02 
585	 1,46849588992533E-02 
586	 1,54426941320576E-02 
587	 1,54784777167675E-02 
588	 1,48431520161454E-02 
589	 1,53747940847489E-02 
590	 1,60616733851398E-02 
591	 1,59325162429616E-02 
592	 1,62426624802955E-02 
593	 1,67972298186729E-02 
594	 1,64424707151259E-02 
595	 1,58363453563376E-02 
596	 1,53815964397723E-02 
597	 1,54927409631888E-02 
598	 1,59444364344609E-02 
599	 1,63517083979223E-02 
600	 0,016242184531238 
601	 1,56695271081241E-02 
602	 0,015396888208944 
603	 0,015481857945991 
604	 1,59125389683201E-02 
605	 0,016210295038618 
606	 1,61579497393051E-02 
607	 1,54924272470656E-02 
608	 1,46222748309184E-02 
609	 1,39060935308798E-02 
610	 1,41258886173581E-02 
611	 1,47442123784479E-02 
612	 1,50201026566382E-02 
613	 0,014849694968129 
614	 1,45041335820159E-02 
615	 1,50704817545843E-02 
616	 1,55422659229552E-02 
617	 1,52540573950502E-02 
618	 1,43423479627737E-02 
619	 1,36409704428197E-02 
620	 1,47907878744893E-02 
621	 1,54896911512881E-02 
622	 1,50995987770399E-02 
623	 1,46315001104736E-02 
624	 1,43408709164266E-02 
625	 1,44130024208513E-02 
626	 1,42985035129487E-02 
627	 1,40773023520046E-02 
628	 1,43144893517819E-02 
629	 1,47811319115707E-02 
630	 1,52573349622506E-02 
631	 1,51268123968089E-02 
632	 1,46915102582228E-02 
633	 1,45388879402309E-02 
634	 1,46263452725148E-02 
635	 1,49879188125919E-02 
636	 1,57995747455344E-02 
637	 1,62822379136727E-02 
638	 1,58308996860681E-02 
639	 1,55310060837762E-02 
640	 1,55088644818487E-02 
641	 1,54648925423084E-02 
642	 1,57027919953729E-02 
643	 1,62624025009469E-02 
644	 1,66895480954402E-02 
645	 1,68977944904437E-02 
646	 1,68475811413475E-02 
647	 1,65564700853365E-02 
648	 1,62095962467861E-02 
649	 1,62852817322674E-02 
650	 1,67206580667115E-02 
651	 0,017340180382991 
652	 1,70423428464188E-02 
653	 1,62065929991811E-02 
654	 1,59013763984398E-02 
655	 0,01596060633632 
656	 1,62385794021931E-02 
657	 1,62484642392354E-02 
658	 0,015783158372277 
659	 1,47269687732885E-02 
660	 1,46179373182112E-02 
661	 1,51954428297102E-02 
662	 1,46988284922632E-02 
663	 0,014031787622434 
664	 1,36736963248853E-02 
665	 1,36213093373156E-02 
666	 1,37950156906723E-02 
667	 1,40758474449595E-02 
668	 1,40995535170996E-02 
669	 1,39249761660115E-02 
670	 1,43427628661398E-02 
671	 0,014523036071106 
672	 1,38735874005379E-02 
673	 1,37363122758346E-02 
674	 1,40664121799317E-02 
675	 1,42304901246381E-02 
676	 1,40884061286002E-02 
677	 1,36902555872977E-02 
678	 1,37270965944509E-02 
679	 1,41592136421448E-02 
680	 1,48534003817922E-02 
681	 1,51342120760511E-02 
682	 0,014953789878649 
683	 1,47399865040516E-02 
684	 1,46595484272276E-02 
685	 1,48283857303099E-02 
686	 1,52018978524777E-02 
687	 1,55474685623044E-02 
688	 1,54473190259686E-02 
689	 1,56961316313607E-02 
690	 1,64312134682139E-02 
691	 1,70513425583321E-02 
692	 1,77155107919019E-02 
693	 1,85874362140893E-02 
694	 1,95704175366426E-02 
695	 2,07779427686762E-02 
696	 2,24800829893932E-02 
697	 2,46104376090245E-02 
698	 2,70873059088972E-02 
699	 0,029592223105029 
700	 3,22316377004354E-02 
701	 0,035186542475572 
702	 3,84800865398803E-02 
703	 4,20777352730066E-02 
704	 4,59332161760342E-02 
705	 4,96390189594291E-02 
706	 5,29804644992571E-02 
707	 5,65553687297742E-02 
708	 6,03645167910372E-02 
709	 6,42723594947224E-02 
710	 6,77258571123943E-02 
711	 7,07641652095291E-02 
712	 7,44722044625667E-02 
713	 7,81102695570862E-02 
714	 8,09762720448229E-02 
715	 8,37366561989503E-02 
716	 0,086503168943701 
717	 8,92176164201378E-02 
718	 9,18796084406281E-02 
719	 9,44296785242528E-02 
720	 9,65740985653538E-02 
721	 9,84724432661055E-02 
722	 0,100367486316735 
723	 0,10230969298331 
724	 0,104179200124598 
725	 0,105484735516285 
726	 0,106813624556311 
727	 0,108462950713965 
728	 0,109640419340193 
729	 0,110528022176904 
730	 0,111631738802256 
731	 0,112799391163985 
732	 0,113941312716259 
733	 0,11488609530358 
734	 0,115620633445953 
735	 0,116148680922635 
736	 0,116523642309352 
737	 0,116978277072888 
738	 0,118112822221661 
739	 0,11882914157951 
740	 0,118853041248168 
741	 0,119256666679965 
742	 0,11989090539294 
743	 0,120475341194917 
744	 0,120824619738098 
745	 0,121045473419872 
746	 0,121693968499953 
747	 0,122012722503285 
748	 0,121734355505943 
749	 0,122057942226002 
750	 0,122652803098691 
751	 0,122787182321283 
752	 0,122994027107966 
753	 0,123380743064347 
754	 0,123787932209968 
755	 0,124281148587466 
756	 0,124837898774954 
757	 0,124755005421065 
758	 0,124457460808212 
759	 0,125021989054409 
760	 0,12559118769959 
761	 0,125867013816674 
762	 0,125822256255892 
763	 0,125940888647541 
764	 0,126634785805432 
765	 0,127040003669184 
766	 0,12711717734683 
767	 0,1271900865797 
768	 0,127460886551785 
769	 0,127913501017067 
770	 0,127836006824966 
771	 0,127675018882866 
772	 0,128014536408073 
773	 0,128353601999543 
774	 0,128640134429942 
775	 0,129130541823399 
776	 0,129369756669351 
777	 0,129179117992565 
778	 0,129096082223127 
779	 0,129202534124375 
780	 0,129513770090847 
781	 0,1298073787844 
782	 0,12999819206439 
783	 0,130032794905379 
784	 0,130206734387417 
785	 0,130641860533628 
786	 0,130596684244905 
787	 0,130344135510198 
788	 0,130553561914939 
789	 0,130740866459255 
790	 0,130838487660054 
791	 0,131214994002175 
792	 0,131401305358934 
793	 0,1310877669931 
794	 0,13120936521687 
795	 0,131645928938023 
796	 0,131831168261113 
797	 0,131679606501621 
798	 0,131379476581875 
799	 0,132037657052769 
800	 0,132783965246661 
801	 0,132770200144001 
802	 0,132600257360469 
803	 0,132502710496264 
804	 0,132787036384325 
805	 0,132918658029034 
806	 0,132768922448267 
807	 0,132791231704169 
808	 0,133043713154408 
809	 0,133527950425543 
810	 0,133741206794687 
811	 0,133787153647393 
812	 0,134299588112279 
813	 0,134710494443125 
814	 0,134839252606472 
815	 0,135144568918659 
816	 0,135522461249677 
817	 0,13580339693475 
818	 0,136025946240949 
819	 0,136203798620375 
820	 0,136378288332504 
821	 0,136436490406429 
822	 0,136387834432 
823	 0,1366368692539 
824	 0,136932970164601 
825	 0,136913321459912 
826	 0,137478302162623 
827	 0,138380699352986 
828	 0,138131493158754 
829	 0,138032138755167 
830	 0,138616765421579 
831	 0,138569651995161 
832	 0,138314591474935 
833	 0,138604164817247 
834	 0,139271982389104 
835	 0,139982121771781 
836	 0,139798162710983 
837	 0,139604339282119 
838	 0,139835746992961 
839	 0,139839411677842 
840	 0,13975599760333 
841	 0,139874733674621 
842	 0,140008215622519 
843	 0,140105286724604 
844	 0,140111138917942 
845	 0,140343065662441 
846	 0,140875474996558 
847	 0,140917049158221 
848	 0,140784576828888 
849	 0,141047457344023 
850	 0,141159579014419 
851	 0,14101318249368 
852	 0,140710140801219 
853	 0,140368225435402 
854	 0,140155376256138 
855	 0,140623579724703 
856	 0,141251628844498 
857	 0,141262250314217 
858	 0,141391069927928 
859	 0,141564063432688 
860	 0,140984988035071 
861	 0,140323056838359 
862	 0,14000690974252 
863	 0,14014571623609 
864	 0,140791057321239 
865	 0,14195466179758 
866	 0,142550718756032 
867	 0,142556694308846 
868	 0,142890396004432 
869	 0,14288532371665 
870	 0,142351576065683 
871	 0,141970043448223 
872	 0,142118389134811 
873	 0,143114462509416 
874	 0,1440011277083 
875	 0,144440853334603 
876	 0,144133769138646 
877	 0,144231593071923 
878	 0,145086165238717 
879	 0,145445060572738 
880	 0,145802569148619 
881	 0,146719734813526 
882	 0,146611693586465 
883	 0,145931641155296 
884	 0,146724156754142 
885	 0,147349218486395 
886	 0,147428617793131 
887	 0,148273577419735 
888	 0,148806485239373 
889	 0,148091109835873 
890	 0,148216779546086 
891	 0,148903854832887 
892	 0,148673483980539 
893	 0,148519768233753 
894	 0,148706163085794 
895	 0,148961964148763 
896	 0,149149056651566 
897	 0,14915505373284 
898	 0,148974809916974 
899	 0,148753770234269 
900	 0,148725125462369 
901	 0,148951969399017 
902	 0,149278659353286 
903	 0,149018167987446 
904	 0,149013027955499 
905	 0,149626748092213 
906	 0,149336830857866 
907	 0,148910610422064 
908	 0,14967190589497 
909	 0,149407041519846 
910	 0,148504316970724 
911	 0,150007061460475 
912	 0,151078348756113 
913	 0,150479719707292 
914	 0,149362727414512 
915	 0,149244563456948 
916	 0,151462986482204 
917	 0,151667007601731 
918	 0,150315374081355 
919	 0,150945290253557 
920	 0,151551342905915 
921	 0,151552869639994 
922	 0,151423992334825 
923	 0,151326894719638 
924	 0,151418884720933 
925	 0,151996459487705 
926	 0,152527532586851 
927	 0,152011524422226 
928	 0,151449953868852 
929	 0,151171993286026 
930	 0,151129665865173 
931	 0,151472163033692 
932	 0,1521381259797 
933	 0,152229374401509 
934	 0,15190527226954 
935	 0,151542738582936 
936	 0,152236288385916 
937	 0,153277954322859 
938	 0,151927094864718 
939	 0,150813581968404 
940	 0,150887408902291 
941	 0,151215930877497 
942	 0,151723375087085 
943	 0,152316015759437 
944	 0,15266335463396 
945	 0,152287260659204 
946	 0,150387828448122 
947	 0,14987572417259 
948	 0,150808893210208 
949	 0,150006949409401 
950	 0,14886374956412 
951	 0,148252962947049 
952	 0,148251619766715 
953	 0,148288703139449 
954	 0,1476895278061 
955	 0,147226190863547 
956	 0,147244962734349 
957	 0,148463539494279 
958	 0,147694121120663 
959	 0,144789052035773 
960	 0,144528530457438 
961	 0,14516476693426 
962	 0,14520449888203 
963	 0,14501564526992 
964	 0,144672338296229 
965	 0,144261619465557 
966	 0,144812559648442 
967	 0,145868724183321 
968	 0,145287528745446 
969	 0,144215652569241 
970	 0,143435100554552 
971	 0,144392573224762 
972	 0,144663685373818 
973	 0,142356481987283 
974	 0,142558993879178 
975	 0,144301549288366 
976	 0,144312998226258 
977	 0,143930013345466 
978	 0,143613092118038 
979	 0,143646997163921 
980	 0,144583179428643 
981	 0,146561120538906 
982	 0,14886875158138 
983	 0,149948819839803 
984	 0,148561157153663 
985	 0,147606530430239 
986	 0,147708392344378 
987	 0,148934110946895 
988	 0,148751989516857 
989	 0,147510563572225 
990	 0,149561090803466 
991	 0,150841892840869 
992	 0,149496929532414 
993	 0,148064796153804 
994	 0,147982294271064 
995	 0,15018674427993 
996	 0,150598904701656 
997	 0,149885260740999 
998	 0,150925713548133 
999	 0,151169459944706 
1000	 0,150999346270921 
1001	 0,154576443697232 
1002	 0,15617873178053 
1003	 0,153670733204547 
1004	 0,152597671359852 
1005	 0,153318634111636 
1006	 0,155453996490972 
1007	 0,155943371482723 
1008	 0,155315619920995 
1009	 0,155578372626981 
1010	 0,155283277410916 
1011	 0,154425697983706 
1012	 0,153720102960127 
1013	 0,155493950986347 
1014	 0,15938015207105 
1015	 0,158000327250471 
1016	 0,156216378748886 
1017	 0,158133315032012 
1018	 0,159095818566109 
1019	 0,158213923834804 
1020	 0,15528769348405 
1021	 0,155293498146493 
1022	 0,158663337143356 
1023	 0,163420454001263 
1024	 0,164257477101506 
1025	 0,160640485915016 
1026	 0,159930454370979 
1027	 0,160745201456105 
1028	 0,162219686461498 
1029	 0,165745886609583 
1030	 0,168637578121642 
1031	 0,167869062340406 
1032	 0,165030460130004 
1033	 0,163849115102232 
1034	 0,171092277582138 
1035	 0,171527065444145 
1036	 0,164337791808035 
1037	 0,162339543348428 
1038	 0,166775222058172 
1039	 0,174828560069379 
1040	 0,168352663913608 
1041	 0,161969640581074 
1042	 0,167412614996622 
1043	 0,168594204625754 
1044	 0,168521820918077 
1045	 0,173651749050142 
1046	 0,171116698401791 
1047	 0,165824226946045 
1048	 0,176302330694691 
1049	 0,180400594847438 
1050	 0,17473351723073 
1051	 0,172804411562479 
1052	 0,172559112484566 
1053	 0,173217103024799 
1054	 0,175439628030424 
1055	 0,17789321370706 
1056	 0,179401358610295 
1057	 0,181276375847442 
1058	 0,181567517690047 
1059	 0,177622000641584 
1060	 0,178794146143222 
1061	 0,181981048792401 
1062	 0,175794282874288 
1063	 0,168727003885699 
1064	 0,16522387410267 
1065	 0,170114158103301 
1066	 0,179615672780065 
1067	 0,187554051504771 
1068	 0,173946553497183 
1069	 0,165066473420655 
1070	 0,179981999900527 
1071	 0,189403682208326 
1072	 0,189613646145567 
1073	 0,180794362981733 
1074	 0,17372817753087 
1075	 0,171759026450769 
