Wavelength	SCORFF200477.asd
325	 0,135015978328162 
326	 0,229071363220494 
327	 0,188051601397218 
328	 3,28234138275674E-02 
329	 4,49276301297086E-02 
330	 0,110683910340082 
331	 0,139193586892332 
332	 5,36266493780288E-02 
333	-0,025062223888077 
334	 0,14735579605043 
335	 0,260683323927891 
336	 0,189231141758464 
337	 0,12527528029383 
338	 1,41856717771301E-02 
339	-0,137989230573734 
340	-0,031978149301261 
341	 0,15844967218228 
342	 7,45881227078648E-02 
343	 4,79906627929977E-02 
344	 0,137613951359126 
345	 0,156665606831395 
346	 0,121279082569419 
347	 5,27659475460392E-02 
348	 5,27232476969844E-02 
349	 9,97383607311185E-02 
350	 0,107837918326322 
351	 0,111165970890218 
352	 0,113722779966153 
353	 7,76440577133637E-02 
354	 2,81968136521467E-02 
355	-3,99814987574377E-03 
356	 2,46799078588531E-02 
357	 7,89904928826102E-02 
358	 5,10376725444851E-02 
359	 3,28166627780988E-02 
360	 5,43039074267407E-02 
361	 2,86898196378933E-02 
362	-2,72449816345048E-03 
363	 3,31750792213671E-02 
364	 5,21440520207852E-02 
365	 5,08312161608982E-02 
366	 8,63088871221289E-02 
367	 8,97321285708534E-02 
368	 3,04078074086475E-02 
369	 7,84143253714042E-03 
370	 1,18161360248239E-02 
371	-1,67091197226568E-03 
372	 6,88332009173134E-03 
373	 3,78675919275787E-02 
374	 5,12035066850442E-02 
375	 0,051350306143576 
376	 4,47781529045988E-02 
377	 4,56971687931755E-02 
378	 4,87575213657345E-02 
379	 3,56238129389341E-02 
380	 3,03527436808113E-02 
381	 4,00600647418457E-02 
382	 5,72770210497709E-02 
383	 6,22194960306797E-02 
384	 4,09094237166341E-02 
385	 3,05560912866039E-02 
386	 3,36676794301696E-02 
387	 3,58985911747189E-02 
388	 4,28030727363638E-02 
389	 5,09162770732918E-02 
390	 3,55372652304155E-02 
391	 1,69457829465278E-02 
392	 2,26867636363856E-02 
393	 1,94847195865295E-02 
394	 9,72944469559154E-03 
395	 2,42392893262326E-02 
396	 3,32611315562607E-02 
397	 2,46127143255227E-02 
398	 2,05176474509101E-02 
399	 2,28428448940633E-02 
400	 3,10260272661363E-02 
401	 2,52621575021178E-02 
402	 7,39814529811665E-03 
403	 5,76534787587202E-04 
404	 7,67776866917691E-03 
405	 0,026971721978232 
406	 3,06001367222071E-02 
407	 2,38290902386082E-02 
408	 2,48233993751824E-02 
409	 2,75505500020601E-02 
410	 2,99437198298171E-02 
411	 3,07666061157111E-02 
412	 2,63154185356581E-02 
413	 0,014238920857247 
414	 1,40683772259704E-02 
415	 2,17305531200612E-02 
416	 1,84356675250535E-02 
417	 1,25880758043618E-02 
418	 8,4915653782363E-03 
419	 9,60402959400701E-03 
420	 1,25873885343108E-02 
421	 1,28038236976952E-02 
422	 1,48645491714875E-02 
423	 1,84772778651472E-02 
424	 2,01182845762565E-02 
425	 1,95054370291828E-02 
426	 0,016900234509267 
427	 1,58025921532199E-02 
428	 1,66459618191435E-02 
429	 0,019805726976912 
430	 0,016825941214457 
431	 8,99769778038275E-03 
432	 1,30908079829101E-02 
433	 1,94630634524279E-02 
434	 1,92490820173816E-02 
435	 1,94331651214646E-02 
436	 2,05841768562509E-02 
437	 2,13726304327756E-02 
438	 2,06628418508069E-02 
439	 1,85250347443107E-02 
440	 0,018785352669568 
441	 1,89661976671904E-02 
442	 1,55482580289156E-02 
443	 1,68232899275553E-02 
444	 2,21507473301923E-02 
445	 2,37227447582505E-02 
446	 1,99237785213415E-02 
447	 1,12231538944727E-02 
448	 1,04954738269121E-02 
449	 1,55270756963567E-02 
450	 1,89345920064929E-02 
451	 2,02267181937148E-02 
452	 1,90923308892841E-02 
453	 0,016164630578866 
454	 1,57712186168117E-02 
455	 0,021154710352153 
456	 1,93548946906065E-02 
457	 1,25893850980866E-02 
458	 1,32580160352501E-02 
459	 0,016003785868161 
460	 1,82953316019803E-02 
461	 0,018418041938262 
462	 1,75584212570563E-02 
463	 1,76129290966802E-02 
464	 1,55819113132849E-02 
465	 1,23385171927191E-02 
466	 1,29500246830113E-02 
467	 1,54482389085571E-02 
468	 1,80039508719542E-02 
469	 1,73619144802315E-02 
470	 1,54423232647348E-02 
471	 1,69822147113266E-02 
472	 0,018899324200974 
473	 1,97077906052496E-02 
474	 1,72630908205107E-02 
475	 1,53925621686475E-02 
476	 1,77015548623222E-02 
477	 1,80985731289369E-02 
478	 1,61968129578337E-02 
479	 1,42546713193691E-02 
480	 1,35507771933782E-02 
481	 1,45394260592524E-02 
482	 1,51077583267798E-02 
483	 1,52563009818772E-02 
484	 1,53657061989467E-02 
485	 1,58448920101073E-02 
486	 1,66059739207543E-02 
487	 1,67590303998544E-02 
488	 1,73524426819576E-02 
489	 1,88470664098346E-02 
490	 1,70990896841812E-02 
491	 1,39864302538182E-02 
492	 1,54117760839943E-02 
493	 0,016026701353204 
494	 0,014359297473173 
495	 1,27481935840548E-02 
496	 0,012672998169995 
497	 0,015481891033312 
498	 1,61681160401702E-02 
499	 1,49227247261489E-02 
500	 1,65853864360017E-02 
501	 1,64655520732837E-02 
502	 1,26371939925701E-02 
503	 1,18707435782364E-02 
504	 1,35988620566698E-02 
505	 1,53132385085691E-02 
506	 1,67454216915736E-02 
507	 1,72855058467471E-02 
508	 1,54064103398716E-02 
509	 1,36559665873652E-02 
510	 0,014319707948691 
511	 1,58413063186285E-02 
512	 1,70961177897749E-02 
513	 1,60152103033306E-02 
514	 1,52360001021968E-02 
515	 1,56138925190106E-02 
516	 1,44454661368579E-02 
517	 1,31403835513208E-02 
518	 1,39747325614781E-02 
519	 1,48867739921216E-02 
520	 1,53745883865971E-02 
521	 1,59848898392947E-02 
522	 1,54956420142668E-02 
523	 1,33896480908106E-02 
524	 1,39938998347357E-02 
525	 0,016228290284053 
526	 1,62688294174951E-02 
527	 1,54182060639961E-02 
528	 1,44256424313702E-02 
529	 1,52163699111221E-02 
530	 1,60928176939228E-02 
531	 1,49985761332802E-02 
532	 1,46615608071414E-02 
533	 1,52284058057636E-02 
534	 1,50441921823954E-02 
535	 1,51798715381671E-02 
536	 1,60501646783874E-02 
537	 1,56799219836631E-02 
538	 1,46612290471242E-02 
539	 1,44819852125545E-02 
540	 1,49007824898587E-02 
541	 1,55979833422051E-02 
542	 1,54479296563388E-02 
543	 1,47674407731864E-02 
544	 0,013976961557899 
545	 1,40232670476117E-02 
546	 1,47537757468688E-02 
547	 1,51686410104989E-02 
548	 1,54766926941261E-02 
549	 1,56707940655331E-02 
550	 1,52128230812447E-02 
551	 1,46461516075798E-02 
552	 1,48771119614187E-02 
553	 1,51079952548949E-02 
554	 0,015141945499413 
555	 1,51773142583114E-02 
556	 1,51676726653939E-02 
557	 1,50792000448406E-02 
558	 1,49936521711938E-02 
559	 1,49661380120985E-02 
560	 1,51574882984502E-02 
561	 1,50093857929651E-02 
562	 1,44017317409119E-02 
563	 0,014148461740125 
564	 1,40136768842837E-02 
565	 1,35834708134693E-02 
566	 1,33640221575975E-02 
567	 1,35224364442928E-02 
568	 1,42124757833829E-02 
569	 1,46850254308261E-02 
570	 1,44954507036661E-02 
571	 1,49023590592885E-02 
572	 1,55520286109915E-02 
573	 1,51800686287979E-02 
574	 1,52302368810103E-02 
575	 1,60169498942969E-02 
576	 1,64224204846079E-02 
577	 1,63093449369875E-02 
578	 1,56498744088415E-02 
579	 1,56468115121587E-02 
580	 1,62746389510077E-02 
581	 1,65159168470394E-02 
582	 1,64675179614223E-02 
583	 1,62584076553919E-02 
584	 1,65625339296433E-02 
585	 1,71725926705515E-02 
586	 1,76361275832155E-02 
587	 1,72892161293697E-02 
588	 0,016336135056933 
589	 1,66063736739274E-02 
590	 1,73993529458767E-02 
591	 1,79475466773665E-02 
592	 1,79521750990431E-02 
593	 1,75342230983395E-02 
594	 0,017198646176571 
595	 1,70508730186805E-02 
596	 1,71463446214066E-02 
597	 1,72451324185124E-02 
598	 1,74451580622081E-02 
599	 1,79706654866023E-02 
600	 1,76930558353077E-02 
601	 1,67535640336597E-02 
602	 1,69378552835053E-02 
603	 1,74939322968603E-02 
604	 1,77818503123627E-02 
605	 1,79794725692685E-02 
606	 1,79356679894599E-02 
607	 1,71541348960212E-02 
608	 1,68551067147873E-02 
609	 1,72844434451287E-02 
610	 1,67792690908999E-02 
611	 1,60698548718434E-02 
612	 0,016211871171489 
613	 1,62892017610207E-02 
614	 1,61767699406488E-02 
615	 1,62375529785903E-02 
616	 1,62858798934906E-02 
617	 1,61817708873007E-02 
618	 1,56924256320353E-02 
619	 1,53821384431752E-02 
620	 1,64802323075838E-02 
621	 0,017134618026608 
622	 1,68364284191869E-02 
623	 1,64181595490168E-02 
624	 1,62176217624127E-02 
625	 1,65029883855653E-02 
626	 1,64412520680274E-02 
627	 1,61815790708855E-02 
628	 1,67657254175994E-02 
629	 1,71474132459411E-02 
630	 1,68358690089245E-02 
631	 0,016450286184434 
632	 1,63557972017328E-02 
633	 1,70249495528149E-02 
634	 1,72882338669193E-02 
635	 1,71190997057997E-02 
636	 0,018087776434107 
637	 1,87091051964826E-02 
638	 1,78374208856447E-02 
639	 1,81187592707881E-02 
640	 1,91539112955002E-02 
641	 1,86693697529658E-02 
642	 1,81127636053718E-02 
643	 1,80931671686604E-02 
644	 1,85675111605763E-02 
645	 1,92736470094572E-02 
646	 1,98808668577577E-02 
647	 1,96053030927293E-02 
648	 1,86765887546009E-02 
649	 1,85633250025903E-02 
650	 1,88418868858418E-02 
651	 1,91326068558697E-02 
652	 1,86657653602566E-02 
653	 1,79635642716466E-02 
654	 1,83422188729936E-02 
655	 0,018736539559092 
656	 0,018765471379963 
657	 1,85261729350143E-02 
658	 1,79290255477046E-02 
659	 1,69227234236916E-02 
660	 1,64714531947652E-02 
661	 0,016508071226228 
662	 1,61730294738274E-02 
663	 1,57690253019129E-02 
664	 1,54980102829273E-02 
665	 1,57386189226346E-02 
666	 1,61172384612845E-02 
667	 0,016000605062508 
668	 1,58080638741317E-02 
669	 1,56611113817518E-02 
670	 1,55643522344061E-02 
671	 1,54233648061551E-02 
672	 0,015203332177362 
673	 1,55028784219506E-02 
674	 0,015939967761312 
675	 1,53200959899118E-02 
676	 1,48592221257343E-02 
677	 1,49722463749526E-02 
678	 1,52111859847273E-02 
679	 0,01542341635637 
680	 1,54758624199079E-02 
681	 1,57785931897005E-02 
682	 1,62265639255069E-02 
683	 1,62012406582088E-02 
684	 1,60393510696214E-02 
685	 1,59641896401507E-02 
686	 1,59969605413131E-02 
687	 1,61998536729156E-02 
688	 1,66724483864314E-02 
689	 1,70803544008845E-02 
690	 1,74008880450404E-02 
691	 1,80576303233437E-02 
692	 1,87557075766707E-02 
693	 1,92696959225865E-02 
694	 2,05037225471859E-02 
695	 2,22468171055861E-02 
696	 2,34808660498899E-02 
697	 2,50254154292428E-02 
698	 2,71240050474522E-02 
699	 2,90594021172467E-02 
700	 3,11982344011328E-02 
701	 3,40896972553758E-02 
702	 3,66085990525273E-02 
703	 3,87737909518423E-02 
704	 4,16640536781142E-02 
705	 4,47653150437006E-02 
706	 4,76602192008569E-02 
707	 4,97712397915224E-02 
708	 5,16757087898898E-02 
709	 5,46043669843958E-02 
710	 5,73863102437177E-02 
711	 5,96348471187007E-02 
712	 6,13483313623842E-02 
713	 6,31733514119944E-02 
714	 6,56450788125082E-02 
715	 0,067552934540303 
716	 6,89207019431805E-02 
717	 7,04320796121293E-02 
718	 7,19765984003386E-02 
719	 7,34695657059473E-02 
720	 7,45014154635822E-02 
721	 0,075548695032745 
722	 7,72589601791688E-02 
723	 7,83956162145888E-02 
724	 7,88892573548639E-02 
725	 7,95928816368238E-02 
726	 8,02727448698794E-02 
727	 8,08123964036104E-02 
728	 8,14113967627966E-02 
729	 8,20287301772511E-02 
730	 8,25336036596619E-02 
731	 0,083141356602536 
732	 0,083852134195973 
733	 8,44345703920167E-02 
734	 8,47760739995653E-02 
735	 8,48018964163945E-02 
736	 8,46557508448994E-02 
737	 8,46829093434648E-02 
738	 8,57073912739541E-02 
739	 8,63590581840822E-02 
740	 8,62502680725335E-02 
741	 8,65190641847056E-02 
742	 8,69579605238796E-02 
743	 8,72180074638301E-02 
744	 8,70824922628121E-02 
745	 8,68146194718526E-02 
746	 8,74065320809117E-02 
747	 8,78428676505312E-02 
748	 8,76970062599864E-02 
749	 8,81550201644662E-02 
750	 8,87461054903104E-02 
751	 8,85359880853823E-02 
752	 8,85802267529223E-02 
753	 8,90233453920391E-02 
754	 8,92548831399021E-02 
755	 8,94038422060445E-02 
756	 8,95524275272777E-02 
757	 8,94758669819171E-02 
758	 8,94311785712668E-02 
759	 9,00349782259856E-02 
760	 9,03090519213089E-02 
761	 9,01011665932493E-02 
762	 9,03508885864152E-02 
763	 9,07261354189575E-02 
764	 9,08737288102818E-02 
765	 0,090953673486201 
766	 9,10058658450548E-02 
767	 9,10346203258779E-02 
768	 9,12050129906065E-02 
769	 0,091540964946851 
770	 9,17839732339347E-02 
771	 9,18291727367997E-02 
772	 9,16011132581368E-02 
773	 9,19003319134069E-02 
774	 9,25661851665359E-02 
775	 9,25621410637834E-02 
776	 9,23105773016747E-02 
777	 9,20588051392335E-02 
778	 9,19090859451431E-02 
779	 9,19298016736851E-02 
780	 9,21828394788542E-02 
781	 0,092486062251376 
782	 9,27343485405351E-02 
783	 9,27723228647554E-02 
784	 9,29185229971914E-02 
785	 0,093322674387928 
786	 9,33338317422826E-02 
787	 9,31973901216297E-02 
788	 9,35139551391476E-02 
789	 0,09376308107528 
790	 9,38737048186816E-02 
791	 9,42881786791332E-02 
792	 9,44405675313124E-02 
793	 9,39558476147385E-02 
794	 9,39300622048152E-02 
795	 9,42829652523121E-02 
796	 9,44450505950653E-02 
797	 9,44859476102629E-02 
798	 9,44539063916875E-02 
799	 9,45565170729365E-02 
800	 9,47422804972683E-02 
801	 9,49455306416256E-02 
802	 9,51054972922012E-02 
803	 0,095216387063603 
804	 9,52759563811054E-02 
805	 9,54917633193972E-02 
806	 9,58774868725691E-02 
807	 9,60225177411826E-02 
808	 9,61521642195085E-02 
809	 9,65147380978375E-02 
810	 9,64806927990405E-02 
811	 9,63078295402046E-02 
812	 9,71630780902185E-02 
813	 9,75024488593968E-02 
814	 0,096912852347575 
815	 9,71879539118139E-02 
816	 9,77715607410192E-02 
817	 9,78272319689151E-02 
818	 9,77006522615417E-02 
819	 9,76211608408643E-02 
820	 9,80476916871754E-02 
821	 9,85375038979425E-02 
822	 9,88198428214678E-02 
823	 9,86940009722297E-02 
824	 9,84969104387839E-02 
825	 9,86823368685119E-02 
826	 9,92284723521674E-02 
827	 9,98396888886614E-02 
828	 9,95774565783954E-02 
829	 9,95313459843546E-02 
830	 0,100129884755833 
831	 0,100082516158887 
832	 9,98715675871529E-02 
833	 0,100325929815573 
834	 0,100933621896916 
835	 0,101403577729029 
836	 0,101230504193066 
837	 0,101093760487437 
838	 0,101349064176968 
839	 0,101602656991028 
840	 0,101769429355978 
841	 0,101795650973868 
842	 0,101760067929501 
843	 0,10167978442529 
844	 0,101446678595641 
845	 0,10158583359829 
846	 0,10227730632593 
847	 0,102577954205454 
848	 0,102678371143879 
849	 0,10300669402497 
850	 0,103120269606509 
851	 0,103046552474032 
852	 0,103235754988673 
853	 0,103365947162312 
854	 0,103274558333783 
855	 0,103075600432047 
856	 0,103022526075113 
857	 0,103425399016365 
858	 0,103944540012811 
859	 0,104251685991771 
860	 0,10361235684526 
861	 0,103115836289325 
862	 0,103316090102 
863	 0,10363365692368 
864	 0,103973940441886 
865	 0,10429474546877 
866	 0,104953060548779 
867	 0,10584169863548 
868	 0,10652395659464 
869	 0,10654859478593 
870	 0,105832578443073 
871	 0,10526974702817 
872	 0,105306033505402 
873	 0,106294548787994 
874	 0,106891934377447 
875	 0,106865241658864 
876	 0,10646167655468 
877	 0,106455184504626 
878	 0,107139538514505 
879	 0,107916784191313 
880	 0,10848514600813 
881	 0,108597281778518 
882	 0,108714739476842 
883	 0,108884985515218 
884	 0,108912620154432 
885	 0,109141152916082 
886	 0,109603229388929 
887	 0,109784869412122 
888	 0,109859716508697 
889	 0,110016726995258 
890	 0,110191018397899 
891	 0,110211083254175 
892	 0,109618848515937 
893	 0,109944276115454 
894	 0,111279646014993 
895	 0,111796792889433 
896	 0,111309188137309 
897	 0,109916277102032 
898	 0,109353236897588 
899	 0,109772617337678 
900	 0,110910259421951 
901	 0,111278826845193 
902	 0,110805528342842 
903	 0,111154162612463 
904	 0,111608359745336 
905	 0,11176612089878 
906	 0,112238071376799 
907	 0,112565586732257 
908	 0,112031843621374 
909	 0,111357456305314 
910	 0,111285228303233 
911	 0,113728386082881 
912	 0,114698768025861 
913	 0,112777519635847 
914	 0,111878660915318 
915	 0,112341399521099 
916	 0,113978303042759 
917	 0,113816950711077 
918	 0,112500264528117 
919	 0,113349996513951 
920	 0,114059055240457 
921	 0,114061809644358 
922	 0,114696874339975 
923	 0,11470660934854 
924	 0,113300998175427 
925	 0,113768311470808 
926	 0,115426768425126 
927	 0,116141415452815 
928	 0,115904382816596 
929	 0,114937000960394 
930	 0,114145767381742 
931	 0,114115078345749 
932	 0,115092739413559 
933	 0,116240579408196 
934	 0,116796698421659 
935	 0,11601913828031 
936	 0,11611879498869 
937	 0,116826338885264 
938	 0,115737265315497 
939	 0,115489819350825 
940	 0,116604880661919 
941	 0,116180927410007 
942	 0,115670372841449 
943	 0,116365227188283 
944	 0,116425240999989 
945	 0,115757999058805 
946	 0,114731643685752 
947	 0,11434645065977 
948	 0,114636238321613 
949	 0,114446422164962 
950	 0,114103011755203 
951	 0,113943158277358 
952	 0,115058571079733 
953	 0,115645754423224 
954	 0,113585485138431 
955	 0,112451624480749 
956	 0,112863525702287 
957	 0,114450977921825 
958	 0,114851365667992 
959	 0,113578868717112 
960	 0,112847977219363 
961	 0,113030077692289 
962	 0,11412652027076 
963	 0,11428974470855 
964	 0,113435082918782 
965	 0,111907301101227 
966	 0,111238264331578 
967	 0,111819666464523 
968	 0,113623835048416 
969	 0,113945125011736 
970	 0,112353507541055 
971	 0,113915197335276 
972	 0,114714021370125 
973	 0,111442337580437 
974	 0,111087307353778 
975	 0,112714545919268 
976	 0,112465026551629 
977	 0,11324710217499 
978	 0,114747093146572 
979	 0,11320040709996 
980	 0,112468537900634 
981	 0,114335491364592 
982	 0,117320795057904 
983	 0,118413086090402 
984	 0,115202354146458 
985	 0,113995608714166 
986	 0,115068266245733 
987	 0,116461945107342 
988	 0,11777749304121 
989	 0,118425819461594 
990	 0,117064738514556 
991	 0,116841273444668 
992	 0,118860383810318 
993	 0,118790909911514 
994	 0,118204788731068 
995	 0,118996924903818 
996	 0,119148948640041 
997	 0,118995222445149 
998	 0,119879762388669 
999	 0,120059027539599 
1000	 0,119497217897083 
1001	 0,119661282425912 
1002	 0,12115481895699 
1003	 0,123681281648464 
1004	 0,123856195791361 
1005	 0,12265630271913 
1006	 0,121516442587219 
1007	 0,12180744311336 
1008	 0,123291549812395 
1009	 0,125031584252674 
1010	 0,125401688207857 
1011	 0,124195702819836 
1012	 0,12192853537744 
1013	 0,123034762598552 
1014	 0,128013319840263 
1015	 0,128455497930591 
1016	 0,127369811696548 
1017	 0,127737914064939 
1018	 0,129015347089327 
1019	 0,129704639327629 
1020	 0,127743397595832 
1021	 0,126208797635223 
1022	 0,126760485450323 
1023	 0,132215447109269 
1024	 0,132799410773014 
1025	 0,127540571131641 
1026	 0,128976224183503 
1027	 0,131783286798369 
1028	 0,132164228270006 
1029	 0,131103963163435 
1030	 0,129984070819341 
1031	 0,130311367491965 
1032	 0,13115739707705 
1033	 0,132946334490784 
1034	 0,136709872208448 
1035	 0,142524652861903 
1036	 0,146968868037918 
1037	 0,138270668566218 
1038	 0,132374897710828 
1039	 0,134719785660378 
1040	 0,130692585162286 
1041	 0,127778267384462 
1042	 0,131985717190331 
1043	 0,133953655785443 
1044	 0,136857610482738 
1045	 0,145916941328904 
1046	 0,14315661787986 
1047	 0,135366599620509 
1048	 0,148536025406913 
1049	 0,153852768816504 
1050	 0,146440359516366 
1051	 0,142174531866979 
1052	 0,138260474073594 
1053	 0,134412468933818 
1054	 0,135184367029253 
1055	 0,140369653512578 
1056	 0,148307259243958 
1057	 0,15291103464986 
1058	 0,151477999920212 
1059	 0,14233772002255 
1060	 0,143022558936334 
1061	 0,149651621440709 
1062	 0,144407327893495 
1063	 0,14140466367698 
1064	 0,143826256584437 
1065	 0,147392232693422 
1066	 0,151156726673312 
1067	 0,151590054015759 
1068	 0,131972467554208 
1069	 0,128511604783841 
1070	 0,161241851905819 
1071	 0,154965800715235 
1072	 0,140973782233561 
1073	 0,16121180686828 
1074	 0,162917259807207 
1075	 0,150387065427868 
