Wavelength	SCORFF200650.asd
325	 0,182138626758421 
326	 0,412762402155129 
327	 0,441895279517411 
328	 0,25234928212054 
329	 0,168157257071774 
330	 0,144310053068131 
331	 0,12618141153706 
332	 0,129522525758049 
333	 0,146665178627832 
334	 0,168093830190784 
335	 0,206814576510684 
336	 0,235030502790066 
337	 0,237795752234738 
338	 0,186697001321355 
339	 6,38302941737086E-02 
340	 1,99954507328585E-02 
341	 3,19400884316316E-02 
342	-1,67716647379227E-02 
343	 4,06917613457025E-02 
344	 0,17751359846587 
345	 0,157476380813953 
346	 8,61069809287517E-02 
347	 0,070446606377432 
348	 0,082570250949284 
349	 0,104470858719393 
350	 0,115549268510591 
351	 9,33652262213697E-02 
352	 4,68537462727755E-02 
353	 5,11855406403285E-02 
354	 6,62066052009854E-02 
355	 4,25606974027705E-02 
356	 5,31823872727204E-02 
357	 8,80328546972425E-02 
358	 8,21471381241664E-02 
359	 7,46507312747133E-02 
360	 7,60826053026342E-02 
361	 3,22817559260777E-02 
362	 4,08796028977209E-04 
363	 6,84602761430512E-02 
364	 0,084925393567544 
365	 4,43976646693205E-02 
366	 4,40545864983349E-02 
367	 5,55150091203672E-02 
368	 5,88445002929694E-02 
369	 4,46473058580682E-02 
370	 2,24184659744165E-02 
371	 1,41130586608013E-02 
372	 1,82079874863144E-02 
373	 3,19053218945092E-02 
374	 4,69805516953567E-02 
375	 4,93049405270613E-02 
376	 3,25974307900098E-02 
377	 3,41909486940914E-02 
378	 4,91201767368952E-02 
379	 5,56946561548092E-02 
380	 5,31512783933013E-02 
381	 4,51487201666994E-02 
382	 5,84015625037801E-02 
383	 6,51920043766426E-02 
384	 0,041992969595046 
385	 2,81554425583024E-02 
386	 2,92410310066601E-02 
387	 4,00423821723268E-02 
388	 4,46822070367466E-02 
389	 3,68123720030616E-02 
390	 2,18559776785686E-02 
391	 1,52885398806407E-02 
392	 3,52244952254665E-02 
393	 2,90203558280376E-02 
394	 2,82497396463096E-03 
395	 1,12663137002225E-02 
396	 2,15682497095288E-02 
397	 1,92358534893379E-02 
398	 2,26755941521262E-02 
399	 2,81950687233699E-02 
400	 2,86813337296497E-02 
401	 1,80084578754945E-02 
402	 1,68173554255941E-03 
403	 4,16888483255322E-04 
404	 1,24878063779961E-02 
405	 3,27149494782006E-02 
406	 0,032626200003146 
407	 2,17340721334917E-02 
408	 2,75397323866277E-02 
409	 2,99650309835413E-02 
410	 2,54402198752106E-02 
411	 2,46462421896053E-02 
412	 2,43401584062831E-02 
413	 2,13784744905295E-02 
414	 2,31020206120353E-02 
415	 2,71028177321846E-02 
416	 2,40652787688871E-02 
417	 2,28688495386895E-02 
418	 2,55126969290407E-02 
419	 2,04171385122659E-02 
420	 1,43237301913154E-02 
421	 1,68921076173647E-02 
422	 2,11069842176851E-02 
423	 2,42186595838394E-02 
424	 2,37777645605423E-02 
425	 2,18456885179342E-02 
426	 0,019774596874417 
427	 1,75898748365928E-02 
428	 1,61192455520787E-02 
429	 0,016494573742554 
430	 1,81439658058474E-02 
431	 2,01826354888431E-02 
432	 2,01255996265068E-02 
433	 1,93772510473622E-02 
434	 1,93850877637742E-02 
435	 0,022032478582326 
436	 2,47142894646274E-02 
437	 1,99285951557084E-02 
438	 1,58750896769945E-02 
439	 1,58577716428795E-02 
440	 1,74814382458498E-02 
441	 1,82265635263208E-02 
442	 1,52823387319277E-02 
443	 1,61540013435748E-02 
444	 2,01833373915812E-02 
445	 1,89210920820392E-02 
446	 1,74959030557073E-02 
447	 1,86688973147694E-02 
448	 1,69425498472175E-02 
449	 1,49650711094166E-02 
450	 1,91132132384097E-02 
451	 2,12674843998569E-02 
452	 1,97834634491075E-02 
453	 1,96903686303732E-02 
454	 2,00181179180931E-02 
455	 1,96194782349577E-02 
456	 1,75638929647724E-02 
457	 0,015148155822381 
458	 1,60328948499578E-02 
459	 1,78964866275512E-02 
460	 1,94169077973437E-02 
461	 0,019093384323686 
462	 0,018338257031408 
463	 1,92486078008336E-02 
464	 0,017985296279827 
465	 1,48886062386743E-02 
466	 1,40519824107654E-02 
467	 1,54330926616653E-02 
468	 1,84304802070271E-02 
469	 1,82586347954426E-02 
470	 1,65307215590422E-02 
471	 1,79369132434073E-02 
472	 1,88610659335495E-02 
473	 1,83483377820669E-02 
474	 0,017552568920016 
475	 1,68996627894726E-02 
476	 1,67497236619096E-02 
477	 1,71364141050165E-02 
478	 1,76370141135784E-02 
479	 1,72950305627612E-02 
480	 1,59237013683153E-02 
481	 1,40924852645966E-02 
482	 1,61341103630735E-02 
483	 1,93855686923334E-02 
484	 1,94179976939705E-02 
485	 1,84315947531942E-02 
486	 0,017085638697259 
487	 1,51619013105314E-02 
488	 1,51776447823933E-02 
489	 1,85174560395499E-02 
490	 1,87746072429359E-02 
491	 1,66143836738891E-02 
492	 1,59770497238821E-02 
493	 1,55003578511768E-02 
494	 1,49520092207106E-02 
495	 1,48360510045435E-02 
496	 1,51720512638832E-02 
497	 1,59311200216687E-02 
498	 1,66677116005451E-02 
499	 0,0171314608466 
500	 1,71229590479692E-02 
501	 1,64097670050461E-02 
502	 0,01525011464791 
503	 1,66617734619295E-02 
504	 1,89436622447767E-02 
505	 1,84654544302594E-02 
506	 1,86824581470986E-02 
507	 1,96169527355077E-02 
508	 1,68276766541664E-02 
509	 1,38846641124015E-02 
510	 1,40890840481636E-02 
511	 1,50979648540559E-02 
512	 1,62788412882171E-02 
513	 0,017437551145074 
514	 1,78121047857912E-02 
515	 1,71500419732642E-02 
516	 1,63676815686746E-02 
517	 1,55996232478499E-02 
518	 1,48277080270207E-02 
519	 0,015061498321331 
520	 1,62298815606127E-02 
521	 1,72298669259948E-02 
522	 1,76161849127488E-02 
523	 0,017202342166639 
524	 1,75710668194355E-02 
525	 1,82650981590088E-02 
526	 1,77312386470471E-02 
527	 1,66244672377827E-02 
528	 0,01557461609232 
529	 1,65777151251593E-02 
530	 0,017917795197295 
531	 1,75086285855358E-02 
532	 1,66518233976001E-02 
533	 1,59357806154776E-02 
534	 1,61442489628698E-02 
535	 1,66646720613257E-02 
536	 1,70194256250634E-02 
537	 1,64795355067503E-02 
538	 0,015772217604316 
539	 0,016429503683056 
540	 1,68655992570953E-02 
541	 1,66511436211969E-02 
542	 1,62353887508316E-02 
543	 1,60550739632229E-02 
544	 1,64851906216242E-02 
545	 1,68836179112001E-02 
546	 1,70808784406079E-02 
547	 1,70867674743773E-02 
548	 0,016839608315982 
549	 1,63976265073206E-02 
550	 1,63075146429055E-02 
551	 1,63820256507557E-02 
552	 1,61859696239406E-02 
553	 1,68063330198733E-02 
554	 1,79790170531501E-02 
555	 1,75094136857808E-02 
556	 1,65936568323314E-02 
557	 1,62896417057209E-02 
558	 1,62778986458827E-02 
559	 1,64592203814601E-02 
560	 1,67339620620739E-02 
561	 1,68386514654334E-02 
562	 1,66439655640995E-02 
563	 1,62279142527073E-02 
564	 1,57881386278725E-02 
565	 1,55600747146595E-02 
566	 1,55184518220657E-02 
567	 1,57298100437923E-02 
568	 0,016466504732382 
569	 1,71449698938056E-02 
570	 1,72855392504439E-02 
571	 1,64964103687656E-02 
572	 0,015562203579639 
573	 1,62689639892239E-02 
574	 0,01700571448494 
575	 1,72836763673144E-02 
576	 0,01794621026617 
577	 1,79676515949817E-02 
578	 1,62392563020428E-02 
579	 1,62967803650352E-02 
580	 1,80489174828489E-02 
581	 1,86170754617996E-02 
582	 1,83738853135356E-02 
583	 1,76398367656394E-02 
584	 1,74896466117112E-02 
585	 1,79249662109764E-02 
586	 1,87482972223433E-02 
587	 1,84938429456278E-02 
588	 1,72245817855825E-02 
589	 1,73730016171058E-02 
590	 1,82859420439853E-02 
591	 1,91869167493935E-02 
592	 1,93292736516769E-02 
593	 1,87365114456436E-02 
594	 0,017850198965979 
595	 1,75147742470695E-02 
596	 1,80442099774005E-02 
597	 1,82708919817236E-02 
598	 1,83262533529073E-02 
599	 1,86252735875498E-02 
600	 1,86359735826254E-02 
601	 1,83377991682885E-02 
602	 1,81995949459451E-02 
603	 1,82177040303469E-02 
604	 1,83855127183561E-02 
605	 1,88181554649092E-02 
606	 1,91371194739819E-02 
607	 1,83377025298994E-02 
608	 1,78628204555394E-02 
609	 1,81221091675773E-02 
610	 1,79313442793639E-02 
611	 1,75517822614882E-02 
612	 1,74237759033397E-02 
613	 1,71434576158497E-02 
614	 1,67989233095758E-02 
615	 1,69771969252917E-02 
616	 0,017240688738955 
617	 1,72622197865442E-02 
618	 1,67234810600122E-02 
619	 1,63342599188911E-02 
620	 1,76813098515052E-02 
621	 0,018201975660682 
622	 1,74207462056314E-02 
623	 1,75109272015744E-02 
624	 1,79878086265045E-02 
625	 1,82156700671621E-02 
626	 1,81383248766691E-02 
627	 1,78675763433328E-02 
628	 1,78047060155954E-02 
629	 1,77490589584492E-02 
630	 1,76305144015844E-02 
631	 1,76992856557413E-02 
632	 1,77475485260495E-02 
633	 0,017360877771841 
634	 1,76114802877156E-02 
635	 1,84697581705173E-02 
636	 0,018501119431651 
637	 1,81672473429871E-02 
638	 1,79309935858185E-02 
639	 1,79875836251822E-02 
640	 1,83710237332644E-02 
641	 1,90848912561838E-02 
642	 1,96198126972553E-02 
643	 1,97300045562865E-02 
644	 1,94879462371391E-02 
645	 1,93071106648893E-02 
646	 1,97022143427658E-02 
647	 1,96703572653956E-02 
648	 1,91821837131861E-02 
649	 1,89837527564439E-02 
650	 1,92393193084882E-02 
651	 1,99113568169322E-02 
652	 0,019548567810998 
653	 1,87198932671446E-02 
654	 1,90538818409122E-02 
655	 1,92981667090577E-02 
656	 1,91016854410669E-02 
657	 1,88494954877962E-02 
658	 1,86554930480164E-02 
659	 1,86028203825542E-02 
660	 1,82574062142299E-02 
661	 1,77766023641842E-02 
662	 1,79293449538399E-02 
663	 1,78510448441435E-02 
664	 1,72499145019215E-02 
665	 1,74093005674062E-02 
666	 1,78117362829596E-02 
667	 1,74183953625306E-02 
668	 1,72335402179835E-02 
669	 1,74777231761391E-02 
670	 1,79412999818146E-02 
671	 1,79929477717761E-02 
672	 1,72227673165307E-02 
673	 1,69732735423058E-02 
674	 1,72149733130634E-02 
675	 1,72782401736118E-02 
676	 1,73298753360541E-02 
677	 1,73962935459222E-02 
678	 0,017409181134398 
679	 1,75005786256077E-02 
680	 0,017825303910912 
681	 1,81104262760139E-02 
682	 1,82587166231437E-02 
683	 1,82322601324912E-02 
684	 1,80664438982832E-02 
685	 1,78324717306174E-02 
686	 1,78134984531326E-02 
687	 1,80425763035165E-02 
688	 1,85110817925712E-02 
689	 1,89203622865818E-02 
690	 1,91726314825994E-02 
691	 1,93075939406969E-02 
692	 1,96503648690798E-02 
693	 2,04915289003097E-02 
694	 2,17517731966241E-02 
695	 2,32033215659716E-02 
696	 2,42458349135066E-02 
697	 2,58231605430349E-02 
698	 2,82122876648094E-02 
699	 3,04400346824308E-02 
700	 3,27583744957673E-02 
701	 3,56061990872042E-02 
702	 3,87283419754648E-02 
703	 4,20965371106056E-02 
704	 4,58240073495019E-02 
705	 0,049846420245081 
706	 5,40594011496748E-02 
707	 5,80327414596285E-02 
708	 6,19380089849901E-02 
709	 6,62001090580733E-02 
710	 0,070609048577889 
711	 7,48954303886741E-02 
712	 7,82069792837966E-02 
713	 8,13298283637092E-02 
714	 8,50075075628785E-02 
715	 8,86833720928029E-02 
716	 9,21535766911984E-02 
717	 9,52089344105799E-02 
718	 9,80402875027704E-02 
719	 0,100723327768648 
720	 0,103144283159439 
721	 0,105506032641717 
722	 0,108074743966674 
723	 0,110496254221327 
724	 0,112617793083997 
725	 0,11430320151481 
726	 0,115684101779904 
727	 0,116893598761112 
728	 0,118226749557765 
729	 0,119564754867058 
730	 0,120563399837838 
731	 0,122090054156088 
732	 0,123992111023999 
733	 0,124476787055215 
734	 0,124717131054349 
735	 0,125743212718318 
736	 0,12642744641954 
737	 0,126866040904624 
738	 0,127854989057434 
739	 0,128447972016084 
740	 0,128471608757444 
741	 0,12907019434759 
742	 0,129928048627488 
743	 0,130569340177954 
744	 0,130971490559248 
745	 0,131210880445782 
746	 0,131589220774161 
747	 0,131878924421774 
748	 0,132002087574146 
749	 0,132244976689444 
750	 0,132686070473513 
751	 0,133400678519637 
752	 0,133808946078471 
753	 0,13388491991727 
754	 0,134232311585345 
755	 0,134601891786539 
756	 0,13480478832383 
757	 0,134867344148703 
758	 0,134978766419726 
759	 0,13552796043005 
760	 0,13593755151009 
761	 0,136069551000091 
762	 0,136256711538619 
763	 0,136562865394302 
764	 0,137015940215758 
765	 0,137358027216196 
766	 0,137539351026465 
767	 0,137540677777189 
768	 0,137721767212675 
769	 0,138174539552542 
770	 0,138465820381494 
771	 0,138625225141864 
772	 0,138736964239548 
773	 0,138941330609941 
774	 0,139263222329495 
775	 0,139733077242961 
776	 0,139818251329687 
777	 0,139355336651239 
778	 0,139336226900018 
779	 0,1395620748184 
780	 0,139561408075422 
781	 0,139783202129227 
782	 0,140196816833489 
783	 0,140311642907647 
784	 0,14035659637006 
785	 0,140478257323297 
786	 0,140539171195703 
787	 0,140628691713017 
788	 0,140945637830506 
789	 0,141053902713761 
790	 0,140961164415213 
791	 0,141328686420251 
792	 0,141553981393143 
793	 0,141232905876182 
794	 0,141575633938631 
795	 0,142281581269646 
796	 0,142313509712305 
797	 0,142022737023722 
798	 0,141689059605102 
799	 0,142097499300815 
800	 0,142581772099015 
801	 0,142516379983982 
802	 0,142729540231483 
803	 0,14317308407346 
804	 0,143338209090437 
805	 0,143493468203672 
806	 0,143720700429325 
807	 0,143947555173535 
808	 0,144187801907507 
809	 0,144444312991509 
810	 0,144329455215806 
811	 0,144084346849585 
812	 0,144571295506044 
813	 0,145182434535749 
814	 0,145624938098864 
815	 0,14586549889577 
816	 0,145981627961098 
817	 0,14608215604766 
818	 0,146385471500585 
819	 0,14680373045462 
820	 0,146921975591531 
821	 0,146929582775886 
822	 0,146963234152578 
823	 0,147318810120801 
824	 0,147569239445675 
825	 0,1471528026805 
826	 0,147525360660823 
827	 0,148539143984463 
828	 0,148540106133023 
829	 0,148657054465509 
830	 0,149361218448275 
831	 0,149715024952712 
832	 0,149767739704559 
833	 0,149728339928006 
834	 0,150117970717796 
835	 0,150799216441955 
836	 0,150868931874386 
837	 0,150789596834938 
838	 0,150860907157803 
839	 0,151304299730859 
840	 0,151780156277601 
841	 0,151783219771235 
842	 0,151656630667726 
843	 0,151572239442488 
844	 0,151799178373282 
845	 0,151924353324446 
846	 0,151772250148865 
847	 0,151810585623433 
848	 0,152102444498708 
849	 0,152653743885595 
850	 0,152601258770668 
851	 0,152088452178574 
852	 0,152342996603893 
853	 0,152749521462192 
854	 0,152932287918921 
855	 0,152713420866964 
856	 0,152543667344695 
857	 0,153052250841805 
858	 0,153028387992582 
859	 0,152565204941974 
860	 0,153017241010114 
861	 0,153160467263747 
862	 0,15254487858223 
863	 0,152613864109546 
864	 0,153132299446618 
865	 0,153587781916521 
866	 0,153949517163803 
867	 0,15424357762023 
868	 0,15472763779915 
869	 0,154775528613988 
870	 0,154287425139859 
871	 0,154533265264327 
872	 0,155273880996956 
873	 0,156057413057992 
874	 0,156819632401037 
875	 0,157399052816047 
876	 0,157442476410796 
877	 0,157606984104348 
878	 0,158119986769046 
879	 0,158446267148312 
880	 0,158725778512751 
881	 0,159134567379548 
882	 0,159297210417093 
883	 0,159305182806888 
884	 0,159603365120482 
885	 0,159770220542478 
886	 0,15982187408185 
887	 0,160670979300597 
888	 0,161327981386865 
889	 0,160915165809034 
890	 0,161002912268893 
891	 0,1614682631028 
892	 0,161372094982698 
893	 0,161497734607477 
894	 0,161990976715698 
895	 0,162427346987539 
896	 0,162462832436112 
897	 0,16196078922762 
898	 0,162243896698071 
899	 0,162771696676254 
900	 0,162211240409665 
901	 0,161784556611263 
902	 0,161761727806504 
903	 0,161700765330514 
904	 0,161887943046086 
905	 0,162386086459747 
906	 0,162318063784096 
907	 0,162119989868814 
908	 0,162556050805992 
909	 0,16206324673307 
910	 0,161146776632504 
911	 0,162631783177012 
912	 0,163873745974619 
913	 0,163693125129155 
914	 0,163212443636967 
915	 0,163053589269998 
916	 0,163743069959093 
917	 0,164059832323255 
918	 0,164083480282307 
919	 0,164758105131451 
920	 0,165011952129735 
921	 0,164611189998348 
922	 0,16434204055141 
923	 0,164092957911578 
924	 0,163867583986024 
925	 0,164979237096766 
926	 0,16628779667812 
927	 0,165429040342482 
928	 0,164839988461011 
929	 0,165049066577434 
930	 0,165344575141157 
931	 0,165073630783518 
932	 0,164069432930396 
933	 0,163978705062933 
934	 0,16458012644674 
935	 0,165318233996448 
936	 0,166073032559426 
937	 0,166501238327522 
938	 0,165892007788763 
939	 0,165074205602414 
940	 0,16452520593769 
941	 0,164635379569113 
942	 0,164951479282118 
943	 0,165009091983131 
944	 0,164699285069152 
945	 0,164102889923171 
946	 0,163405014366251 
947	 0,163106866988276 
948	 0,163053366362804 
949	 0,16197407108337 
950	 0,161343939056698 
951	 0,161839978999188 
952	 0,16188304760519 
953	 0,161570333423105 
954	 0,161210840601686 
955	 0,160429441501241 
956	 0,159361979568916 
957	 0,158583119143789 
958	 0,156997581490814 
959	 0,155069258169838 
960	 0,156363378158478 
961	 0,158455263694176 
962	 0,15930010366696 
963	 0,159454099859978 
964	 0,158477313445108 
965	 0,155705061251029 
966	 0,1550152715851 
967	 0,156518231231053 
968	 0,157446746272683 
969	 0,156615847079789 
970	 0,154237838436167 
971	 0,154958717338211 
972	 0,155785312667282 
973	 0,154031579898307 
974	 0,154161946617379 
975	 0,155365604638688 
976	 0,154851181695568 
977	 0,155366706505221 
978	 0,156956669754767 
979	 0,157118508628805 
980	 0,157621085759331 
981	 0,159085336745501 
982	 0,159913658395746 
983	 0,15958614599173 
984	 0,157996450474899 
985	 0,158435833630635 
986	 0,16046166081567 
987	 0,162028227200715 
988	 0,161566340177663 
989	 0,159314342335297 
990	 0,157894863571713 
991	 0,158083593372102 
992	 0,159871945245966 
993	 0,160191339647488 
994	 0,16062756801343 
995	 0,162844427807388 
996	 0,162908179430584 
997	 0,161935392108612 
998	 0,163512214717799 
999	 0,164126272371823 
1000	 0,163708474469304 
1001	 0,165641352977588 
1002	 0,16716669629781 
1003	 0,167160865022513 
1004	 0,167650797998183 
1005	 0,168789837438674 
1006	 0,170370015623139 
1007	 0,170094611048809 
1008	 0,169101837039425 
1009	 0,170135353082825 
1010	 0,169556834035613 
1011	 0,167339791581414 
1012	 0,165913794916023 
1013	 0,168636777879307 
1014	 0,175129976506171 
1015	 0,175956010792849 
1016	 0,172792869805135 
1017	 0,168692430233914 
1018	 0,172764483907008 
1019	 0,178881434352038 
1020	 0,176120737608797 
1021	 0,174099734628018 
1022	 0,174422199087051 
1023	 0,174948771517186 
1024	 0,175525488635433 
1025	 0,176103480704433 
1026	 0,177224935689617 
1027	 0,178200273807932 
1028	 0,178762262056982 
1029	 0,180815818118607 
1030	 0,181539987344704 
1031	 0,177962807843203 
1032	 0,176590683983267 
1033	 0,178684352146058 
1034	 0,18385810899023 
1035	 0,189212485014773 
1036	 0,192238926693425 
1037	 0,188168730818089 
1038	 0,184725682085574 
1039	 0,184911399618344 
1040	 0,183231237949786 
1041	 0,180650388923251 
1042	 0,179015521744443 
1043	 0,184356751017519 
1044	 0,19052438702149 
1045	 0,188296729429964 
1046	 0,186669964570664 
1047	 0,187861028640871 
1048	 0,192279174875483 
1049	 0,194814916900351 
1050	 0,19385680343262 
1051	 0,188673332656077 
1052	 0,19001753625975 
1053	 0,200640679938053 
1054	 0,204241484593515 
1055	 0,201093384409871 
1056	 0,193698518863556 
1057	 0,189786455377708 
1058	 0,188429106093 
1059	 0,186963883368355 
1060	 0,193440421501885 
1061	 0,200298714841166 
1062	 0,187225886350026 
1063	 0,184211508478002 
1064	 0,194744900574834 
1065	 0,196846029804442 
1066	 0,192102959237072 
1067	 0,183300500767733 
1068	 0,181088994206459 
1069	 0,182714454962052 
1070	 0,18529730280931 
1071	 0,188332519094674 
1072	 0,193585786273929 
1073	 0,202207616911055 
1074	 0,202445753041477 
1075	 0,196540562898663 
