Wavelength	SCORFF200887.asd
325	 0,267412441266672 
326	 0,363627122090068 
327	 0,32445160966478 
328	 0,170521499576719 
329	 0,195169294960673 
330	 0,224820800160649 
331	 0,132149722944702 
332	 0,139842070158909 
333	 0,20697707718289 
334	 0,198561679497192 
335	 0,16474336471937 
336	 0,140159236129181 
337	 0,135540032160909 
338	 9,41552009704911E-02 
339	-2,08379661986149E-02 
340	 2,13246897257645E-04 
341	 9,49895534061539E-02 
342	 0,109140412053096 
343	 0,135807543554227 
344	 0,176814300287289 
345	 0,168894213299419 
346	 0,146454598329417 
347	 0,142221535968899 
348	 0,100836038665682 
349	 5,02420967927348E-02 
350	 7,14346871161077E-02 
351	 7,58524201737561E-02 
352	 4,10847393608751E-02 
353	 6,04579815754893E-02 
354	 7,86790822546736E-02 
355	 2,54501838364992E-02 
356	 0,031893848557174 
357	 8,43652219190607E-02 
358	 6,55708871786408E-02 
359	 5,28157099771694E-02 
360	 6,94311705237836E-02 
361	 3,10974044248705E-02 
362	-9,78866337042015E-03 
363	 3,47968537799909E-02 
364	 6,19034035281586E-02 
365	 0,062298559741328 
366	 8,33458390141053E-02 
367	 8,89739044978327E-02 
368	 0,06150795051489 
369	 3,55139664236397E-02 
370	 2,45334545933698E-02 
371	 4,87073863278484E-02 
372	 3,84074193943293E-02 
373	-1,00185078490643E-03 
374	 4,33263352936361E-02 
375	 8,17544266089981E-02 
376	 5,42189959499019E-02 
377	 4,43198943528648E-02 
378	 5,05733581418051E-02 
379	 4,00676987389302E-02 
380	 2,68619264763929E-02 
381	 2,10574445578796E-02 
382	 5,17744691591785E-02 
383	 7,38593143799621E-02 
384	 5,04201712387447E-02 
385	 3,87348913088772E-02 
386	 4,38838234744591E-02 
387	 5,16302848630855E-02 
388	 4,72136762178512E-02 
389	 2,89273080821663E-02 
390	 2,03422992524126E-02 
391	 2,21100169946181E-02 
392	 3,29302094930823E-02 
393	 3,08632992200432E-02 
394	 0,021425687043663 
395	 3,89655540052566E-02 
396	 4,57540636635628E-02 
397	 2,77735640479986E-02 
398	 2,42042418380432E-02 
399	 3,15778392424357E-02 
400	 3,89577735326945E-02 
401	 2,88333838496545E-02 
402	 7,32976821019245E-03 
403	 1,15748707265592E-02 
404	 2,48825775636567E-02 
405	 3,37584921183148E-02 
406	 3,19261360174423E-02 
407	 2,68763412258315E-02 
408	 3,62500300816764E-02 
409	 4,06438983624353E-02 
410	 3,62964808016568E-02 
411	 3,51195045012062E-02 
412	 2,96963596702309E-02 
413	 1,40523113025597E-02 
414	 1,74922740597407E-02 
415	 3,29589675341321E-02 
416	 3,07608203282554E-02 
417	 2,49990913063751E-02 
418	 0,021658034536734 
419	 2,00590293509844E-02 
420	 2,03745847996959E-02 
421	 2,27967743872948E-02 
422	 0,023022184290618 
423	 2,19891120966767E-02 
424	 2,68262736248087E-02 
425	 2,94554602266222E-02 
426	 2,55039525860838E-02 
427	 2,11585508638518E-02 
428	 1,85799633642235E-02 
429	 1,95991920929697E-02 
430	 2,21456328751012E-02 
431	 2,49037253976288E-02 
432	 2,61241830518666E-02 
433	 2,57403593239725E-02 
434	 2,40505492018387E-02 
435	 2,56958543598169E-02 
436	 2,82487245113549E-02 
437	 0,022943903178602 
438	 2,00187103203406E-02 
439	 2,27436701074802E-02 
440	 2,34033800711221E-02 
441	 2,26220630799561E-02 
442	 2,20849470707442E-02 
443	 2,20259598221684E-02 
444	 2,25467924218255E-02 
445	 2,36367482728503E-02 
446	 2,44241902065115E-02 
447	 2,42840490185806E-02 
448	 2,28346299365295E-02 
449	 2,14871050373106E-02 
450	 2,27923410478017E-02 
451	 2,47944572634916E-02 
452	 2,65127095974432E-02 
453	 2,67160722376978E-02 
454	 2,65706163093324E-02 
455	 2,70953989897291E-02 
456	 2,58050501592986E-02 
457	 2,32131841874821E-02 
458	 2,11279058620919E-02 
459	 2,28127955157551E-02 
460	 2,82692802220333E-02 
461	 2,79253242758768E-02 
462	 2,52894977098133E-02 
463	 2,62584012018661E-02 
464	 2,60722975492903E-02 
465	 2,43490846476754E-02 
466	 2,33975231924498E-02 
467	 2,40048806036723E-02 
468	 2,62815511109448E-02 
469	 2,66072645144239E-02 
470	 2,51184411613525E-02 
471	 2,30100799845894E-02 
472	 0,021821559282225 
473	 2,24456408316527E-02 
474	 2,58835820539932E-02 
475	 2,86114100283634E-02 
476	 2,72980275601189E-02 
477	 2,56855322407196E-02 
478	 2,47433448371191E-02 
479	 2,48546487051268E-02 
480	 2,44255648798459E-02 
481	 2,32138200343596E-02 
482	 2,52774532577517E-02 
483	 2,79002455947429E-02 
484	 2,65986543260373E-02 
485	 2,51200508927726E-02 
486	 2,46165993083263E-02 
487	 2,50983079338384E-02 
488	 2,63291687885608E-02 
489	 2,78955200436504E-02 
490	 2,78056196060105E-02 
491	 0,026653160115293 
492	 2,66671889167237E-02 
493	 2,59185269402457E-02 
494	 2,41517378897621E-02 
495	 2,31658284405796E-02 
496	 2,35740855261181E-02 
497	 2,58275109539926E-02 
498	 2,72126965061524E-02 
499	 0,027269912481726 
500	 2,69938494737102E-02 
501	 2,60572802987846E-02 
502	 2,45357915167111E-02 
503	 2,39931235830026E-02 
504	 2,45742402083646E-02 
505	 2,61952355307758E-02 
506	 0,027556970233375 
507	 2,79107437822478E-02 
508	 2,63331533278867E-02 
509	 2,44933134910864E-02 
510	 0,023953274374835 
511	 2,45810791563707E-02 
512	 2,57018470703832E-02 
513	 2,56083263257205E-02 
514	 2,60100717080919E-02 
515	 2,72371154916571E-02 
516	 2,64356506471969E-02 
517	 2,52587277660779E-02 
518	 2,63677729284853E-02 
519	 2,68480881976303E-02 
520	 0,026504373472572 
521	 2,76506939219604E-02 
522	 2,81042853495898E-02 
523	 2,65313285010044E-02 
524	 2,65410312180776E-02 
525	 2,77546595375902E-02 
526	 2,80362528767904E-02 
527	 2,81660082513731E-02 
528	 2,83841161403316E-02 
529	 2,88923317726531E-02 
530	 2,92000760351144E-02 
531	 2,87456545162853E-02 
532	 2,72204508922033E-02 
533	 2,55488446701966E-02 
534	 2,65646418327141E-02 
535	 2,82269270406711E-02 
536	 2,91623319508339E-02 
537	 0,028810142294095 
538	 2,80124359143189E-02 
539	 2,84845802011907E-02 
540	 2,87125478166842E-02 
541	 2,83588966280348E-02 
542	 2,80506364668957E-02 
543	 0,02801876783363 
544	 2,84311256158544E-02 
545	 2,87030099178173E-02 
546	 2,87994690229031E-02 
547	 2,90151991350101E-02 
548	 2,92173327644802E-02 
549	 2,93893280311016E-02 
550	 2,99135252992465E-02 
551	 0,030331849305951 
552	 2,98615625689637E-02 
553	 2,97721897501536E-02 
554	 3,02228104410323E-02 
555	 3,02964789184755E-02 
556	 3,01239452593341E-02 
557	 2,98600836456723E-02 
558	 2,97942654517522E-02 
559	 2,99299080939015E-02 
560	 3,01512953312323E-02 
561	 3,02360390757453E-02 
562	 3,00971227472854E-02 
563	 2,99793294978869E-02 
564	 2,96767514794864E-02 
565	 2,88825413706195E-02 
566	 2,89232275206265E-02 
567	 2,97694790422567E-02 
568	 3,00204293374415E-02 
569	 3,02359018354225E-02 
570	 0,030731347601409 
571	 3,05734853783821E-02 
572	 3,01910876117518E-02 
573	 0,030802822727166 
574	 3,14783014468882E-02 
575	 3,18503629871135E-02 
576	 3,19107838584657E-02 
577	 3,16787427607343E-02 
578	 0,03120624193345 
579	 3,13311359833397E-02 
580	 3,20593047269155E-02 
581	 3,28462355235408E-02 
582	 3,31159951797586E-02 
583	 3,25845526522664E-02 
584	 3,19101285836538E-02 
585	 3,17252204595307E-02 
586	 3,30286599211364E-02 
587	 0,033260337985194 
588	 3,22246127324558E-02 
589	 3,28969746577881E-02 
590	 3,40508612641097E-02 
591	 3,44176938911118E-02 
592	 3,43905966522389E-02 
593	 3,41235742179622E-02 
594	 3,38347431800913E-02 
595	 3,36568574770512E-02 
596	 3,36378169416035E-02 
597	 3,34616080903144E-02 
598	 3,33728742348787E-02 
599	 0,033793294953509 
600	 3,39563948236731E-02 
601	 3,37964247555594E-02 
602	 3,39942008084348E-02 
603	 3,41550837277654E-02 
604	 3,40037869608612E-02 
605	 3,42878767647617E-02 
606	 3,46661441602891E-02 
607	 0,034011651440071 
608	 3,32364629152285E-02 
609	 3,27745088535034E-02 
610	 3,28854887174342E-02 
611	 3,31085805287228E-02 
612	 3,28524509182215E-02 
613	 3,31962293716754E-02 
614	 3,39575406776539E-02 
615	 3,36511612112143E-02 
616	 3,33233647155878E-02 
617	 3,35844343540579E-02 
618	 3,34396424144807E-02 
619	 3,32031611922218E-02 
620	 3,37758910822582E-02 
621	 3,43030191055196E-02 
622	 3,44940334613881E-02 
623	 3,44603315083176E-02 
624	 3,43507825253039E-02 
625	 3,43110228803421E-02 
626	 3,41935842586867E-02 
627	 3,39945169383716E-02 
628	 3,37285546823119E-02 
629	 3,36786332547226E-02 
630	 3,39713883706377E-02 
631	 3,43687951530107E-02 
632	 3,45973143795221E-02 
633	 3,42784262314346E-02 
634	 0,033990859799301 
635	 3,39613264846602E-02 
636	 3,42987210979244E-02 
637	 3,45865143690079E-02 
638	 3,45253284038387E-02 
639	 3,51210015732466E-02 
640	 3,60522762991082E-02 
641	 3,61169775387274E-02 
642	 3,58282498507257E-02 
643	 3,54831585320101E-02 
644	 0,0355645765199 
645	 3,59457740451778E-02 
646	 3,63944749942583E-02 
647	 3,63118495248703E-02 
648	 0,035778731823559 
649	 3,55970806626444E-02 
650	 3,58451022896888E-02 
651	 3,64404013029799E-02 
652	 3,60825679964884E-02 
653	 3,52968725115031E-02 
654	 3,55722370386715E-02 
655	 3,57975568642777E-02 
656	 3,56413712678245E-02 
657	 3,54212822798136E-02 
658	 3,49601512664479E-02 
659	 3,40987668805493E-02 
660	 0,033772038953342 
661	 3,39514033091591E-02 
662	 3,40213167657404E-02 
663	 3,35518492749037E-02 
664	 3,25624756273615E-02 
665	 3,29724629185333E-02 
666	 3,39741828707736E-02 
667	 3,39945429828347E-02 
668	 3,36112253112657E-02 
669	 3,31094910035973E-02 
670	 3,30031620985263E-02 
671	 3,30318448749228E-02 
672	 3,29832105347013E-02 
673	 3,30584943260526E-02 
674	 3,32356487127214E-02 
675	 3,34765571187441E-02 
676	 3,32819404796596E-02 
677	 3,26833589265743E-02 
678	 3,29541459208008E-02 
679	 0,033660903907438 
680	 3,41593163323487E-02 
681	 3,41170177776106E-02 
682	 3,38108584084322E-02 
683	 3,44960727143557E-02 
684	 3,49225777965554E-02 
685	 3,44841951495936E-02 
686	 3,46476851265537E-02 
687	 3,53011752860764E-02 
688	 3,59143475493262E-02 
689	 3,63043569544839E-02 
690	 3,65198407819968E-02 
691	 0,037094358095515 
692	 3,79710788393545E-02 
693	 3,90556791183138E-02 
694	 4,00488222727657E-02 
695	 4,09681641198796E-02 
696	 4,19627151922953E-02 
697	 4,34090559030152E-02 
698	 4,53453256453209E-02 
699	 4,68825182982231E-02 
700	 4,83696855652131E-02 
701	 0,050360094104354 
702	 0,05260834940559 
703	 5,49515203862974E-02 
704	 5,71396518562476E-02 
705	 5,90871084753175E-02 
706	 6,08017913047345E-02 
707	 6,28179968065063E-02 
708	 6,51079282136623E-02 
709	 6,74885967802287E-02 
710	 0,069584390560033 
711	 7,13006149163234E-02 
712	 0,072871522367603 
713	 7,44734051500709E-02 
714	 7,62451091746536E-02 
715	 7,79132591257167E-02 
716	 7,94683456211073E-02 
717	 8,11097735130046E-02 
718	 8,23636288614171E-02 
719	 8,31223615486713E-02 
720	 8,39708578924605E-02 
721	 8,51366989219588E-02 
722	 8,68211841253267E-02 
723	 8,80798083938202E-02 
724	 8,87981424991804E-02 
725	 8,95395560311644E-02 
726	 9,00329916035602E-02 
727	 9,02168173017421E-02 
728	 0,090949478442385 
729	 9,18828525341988E-02 
730	 9,21615006968145E-02 
731	 9,27031644826448E-02 
732	 9,35473721431943E-02 
733	 9,36313539866644E-02 
734	 9,36437426022037E-02 
735	 9,41885233595128E-02 
736	 9,45889531329898E-02 
737	 9,49411526123957E-02 
738	 9,58924003717279E-02 
739	 9,63131112165921E-02 
740	 9,59622998345451E-02 
741	 9,61413344131407E-02 
742	 9,65671731293113E-02 
743	 9,67886314770549E-02 
744	 9,70165690755014E-02 
745	 9,72886364671058E-02 
746	 9,76204917128679E-02 
747	 9,78725329290673E-02 
748	 9,79745879571869E-02 
749	 9,80006547798382E-02 
750	 9,81021663523519E-02 
751	 9,84935520508438E-02 
752	 9,87672161410237E-02 
753	 9,88640467659206E-02 
754	 9,90598623745916E-02 
755	 9,91914429074337E-02 
756	 9,91567698418596E-02 
757	 9,91466651603358E-02 
758	 9,92840790256028E-02 
759	 9,97761293292702E-02 
760	 0,100078287256783 
761	 0,100041468159903 
762	 9,98684032335859E-02 
763	 0,100074572952884 
764	 0,101042897409073 
765	 0,101237714650239 
766	 0,100750707144781 
767	 0,100552336151467 
768	 0,100816618634729 
769	 0,101463881314162 
770	 0,10134618953916 
771	 0,101065920300318 
772	 0,101435898988369 
773	 0,101810218095328 
774	 0,102032228176505 
775	 0,102122160845408 
776	 0,102040536474153 
777	 0,101816681385797 
778	 0,101754708693158 
779	 0,101787979996496 
780	 0,101752184772974 
781	 0,102100329907318 
782	 0,102658156189275 
783	 0,102362845267226 
784	 0,102205228290006 
785	 0,102751978590615 
786	 0,10284442244562 
787	 0,102745358882738 
788	 0,103232352184785 
789	 0,10342430404783 
790	 0,103220384202823 
791	 0,103395189407953 
792	 0,103448955506893 
793	 0,103050306258536 
794	 0,10325701288709 
795	 0,103808363144482 
796	 0,103758591399182 
797	 0,103805318914124 
798	 0,104083273967082 
799	 0,104116779760088 
800	 0,104122669251695 
801	 0,104308707010051 
802	 0,104367481625777 
803	 0,104310670415022 
804	 0,104250565490976 
805	 0,104559774888439 
806	 0,105186991510337 
807	 0,105008298358676 
808	 0,104707687998938 
809	 0,105067415126987 
810	 0,105104278759897 
811	 0,104918649596388 
812	 0,105410845835954 
813	 0,105583982859804 
814	 0,105185115150307 
815	 0,105402628767065 
816	 0,105850629045416 
817	 0,105950166785311 
818	 0,105747166426039 
819	 0,105492926888045 
820	 0,105949549531423 
821	 0,106264976305275 
822	 0,106068637238782 
823	 0,105813935614551 
824	 0,105755255288847 
825	 0,106143559372474 
826	 0,106455961341225 
827	 0,106592119082799 
828	 0,106709158087218 
829	 0,106777252239004 
830	 0,10679760324997 
831	 0,106831074405386 
832	 0,106905533700838 
833	 0,107043647934687 
834	 0,107642189490459 
835	 0,108381320871759 
836	 0,107946203252113 
837	 0,107421759055553 
838	 0,107431579589468 
839	 0,107745286429857 
840	 0,108170054643259 
841	 0,108470662131649 
842	 0,108124136060929 
843	 0,107368272350134 
844	 0,107331672582956 
845	 0,107909712925146 
846	 0,108783811090744 
847	 0,108131282612349 
848	 0,107192607860517 
849	 0,107976114247399 
850	 0,108552304382029 
851	 0,108525795393561 
852	 0,108276967099954 
853	 0,10801222690243 
854	 0,107900625142597 
855	 0,108096112328814 
856	 0,108340056279407 
857	 0,108263909732237 
858	 0,108378366042362 
859	 0,108605737668998 
860	 0,108240169511589 
861	 0,108157639930978 
862	 0,108681737520119 
863	 0,108660203460036 
864	 0,108546771125799 
865	 0,109065592758001 
866	 0,108963096472551 
867	 0,108383752470698 
868	 0,108737453695668 
869	 0,108781457951023 
870	 0,1081718023401 
871	 0,108656521700764 
872	 0,109325050805219 
873	 0,108939984431493 
874	 0,108948569769204 
875	 0,109410482085951 
876	 0,109600060046543 
877	 0,109566193004817 
878	 0,109437201020188 
879	 0,109933113491778 
880	 0,110432400804259 
881	 0,110247797398622 
882	 0,110404986556568 
883	 0,110780862213578 
884	 0,11044413112496 
885	 0,110369930799107 
886	 0,110872127979419 
887	 0,111734027033003 
888	 0,11187994025928 
889	 0,110525026906131 
890	 0,11065559790498 
891	 0,111696463378623 
892	 0,111102852298097 
893	 0,110911080361248 
894	 0,111532516633049 
895	 0,111933000943106 
896	 0,111652783962188 
897	 0,110523288155385 
898	 0,11018203572745 
899	 0,110626541903067 
900	 0,111385818921258 
901	 0,111358991321661 
902	 0,110546847487146 
903	 0,110298122224159 
904	 0,11061135603474 
905	 0,111286530279353 
906	 0,110906112862723 
907	 0,110085138832302 
908	 0,109950278616454 
909	 0,109970771673542 
910	 0,11015393600536 
911	 0,110999904054204 
912	 0,111202456416509 
913	 0,110354673224243 
914	 0,110012022871784 
915	 0,110407756043353 
916	 0,111526509351273 
917	 0,111338016475407 
918	 0,110389862537215 
919	 0,111275998773233 
920	 0,111568698155221 
921	 0,110767940835867 
922	 0,110608021255193 
923	 0,110932386412046 
924	 0,111524828732548 
925	 0,112343594955285 
926	 0,112715893989924 
927	 0,1115159992502 
928	 0,110705308270323 
929	 0,110677555458809 
930	 0,110377422205108 
931	 0,110754552864756 
932	 0,112107272694141 
933	 0,112597954429809 
934	 0,112479551473587 
935	 0,112370023768253 
936	 0,112307207230774 
937	 0,112234950891393 
938	 0,111801629617094 
939	 0,11187033162924 
940	 0,112455392049257 
941	 0,111801177421364 
942	 0,111052025568682 
943	 0,111230953493907 
944	 0,110965166168436 
945	 0,110680017491848 
946	 0,111571804817706 
947	 0,112201598564864 
948	 0,112019940872321 
949	 0,110722475106059 
950	 0,109549280785219 
951	 0,109263388229485 
952	 0,109486252557383 
953	 0,109663361262341 
954	 0,109195107298378 
955	 0,108429270923614 
956	 0,107850376343711 
957	 0,108479005927841 
958	 0,108996621397083 
959	 0,108881907816512 
960	 0,10801169474406 
961	 0,10791256854228 
962	 0,109458770247336 
963	 0,109765626102917 
964	 0,109175039963839 
965	 0,108856910384794 
966	 0,109024455804831 
967	 0,109494425321721 
968	 0,109513081085749 
969	 0,108799984516339 
970	 0,107719012875926 
971	 0,109014706872823 
972	 0,109827349985038 
973	 0,107759024027989 
974	 0,107701535157083 
975	 0,108733076916874 
976	 0,107715593169993 
977	 0,107257584218425 
978	 0,107645945526766 
979	 0,107193523173408 
980	 0,107678447427324 
981	 0,109770194189284 
982	 0,11223172490822 
983	 0,11285886083277 
984	 0,110018098528015 
985	 0,109357886074531 
986	 0,111162816026599 
987	 0,113897761424633 
988	 0,113282007148149 
989	 0,109727996371987 
990	 0,109804471127842 
991	 0,110468692767416 
992	 0,110335849191108 
993	 0,111221685216289 
994	 0,111896320209846 
995	 0,111113260451524 
996	 0,110694716666679 
997	 0,111591988117282 
998	 0,115027143715472 
999	 0,11527057752931 
1000	 0,112582735507374 
1001	 0,114314187685227 
1002	 0,115903771144112 
1003	 0,115358333897086 
1004	 0,115226042425686 
1005	 0,115237041872059 
1006	 0,115086124554676 
1007	 0,116288041996425 
1008	 0,11802694286327 
1009	 0,11847124376995 
1010	 0,118269185600247 
1011	 0,117285036363975 
1012	 0,113917836448285 
1013	 0,114496027305713 
1014	 0,120072153239738 
1015	 0,120989129333199 
1016	 0,117958305981723 
1017	 0,113036223965436 
1018	 0,113884007405645 
1019	 0,117431523178953 
1020	 0,117366663623842 
1021	 0,118086055698249 
1022	 0,120185866027942 
1023	 0,123161264046597 
1024	 0,122854084121971 
1025	 0,119132111252759 
1026	 0,118510265447275 
1027	 0,119397319458964 
1028	 0,120645119617233 
1029	 0,122741771400852 
1030	 0,124446767571277 
1031	 0,124462133357607 
1032	 0,12452089430744 
1033	 0,124574679773373 
1034	 0,123649862764844 
1035	 0,127015237734139 
1036	 0,131977675932854 
1037	 0,122885198676416 
1038	 0,12047180966801 
1039	 0,129265994997774 
1040	 0,119304791282204 
1041	 0,110105202369124 
1042	 0,117673241565077 
1043	 0,122448257306816 
1044	 0,125127382690912 
1045	 0,129829509335983 
1046	 0,12873282709023 
1047	 0,125114640792184 
1048	 0,130767063108637 
1049	 0,133728768503898 
1050	 0,131029842121501 
1051	 0,125458789304932 
1052	 0,12033457114154 
1053	 0,11821777854129 
1054	 0,122699045932856 
1055	 0,126233284999994 
1056	 0,12336810049019 
1057	 0,128240940952918 
1058	 0,131601538431987 
1059	 0,118697242516908 
1060	 0,119355539841828 
1061	 0,128392738742709 
1062	 0,118992923865354 
1063	 0,120483703633501 
1064	 0,134568947950472 
1065	 0,134713050909632 
1066	 0,135055648736221 
1067	 0,137242276659759 
1068	 0,113838772192065 
1069	 0,104250109252154 
1070	 0,132949804415748 
1071	 0,130523255740635 
1072	 0,118280822047814 
1073	 0,127674964302564 
1074	 0,130082697383715 
1075	 0,126116044552541 
