Wavelength	SCORFF200418.asd
325	 0,294008395332109 
326	 0,250562290332418 
327	 0,180714140188323 
328	 0,138473865563587 
329	 0,220242831041945 
330	 0,271147050396358 
331	 0,186354555392212 
332	 9,97672563771286E-02 
333	 6,91748543897848E-02 
334	 0,120504667336085 
335	 0,155680813341213 
336	 0,134060485153381 
337	 0,121765804709753 
338	 9,94324505921589E-02 
339	 0,060270268123769 
340	 9,64764504343128E-02 
341	 0,140905977520623 
342	 4,05127962099798E-02 
343	 7,62014850311497E-03 
344	 8,08230090728532E-02 
345	 0,116299509447674 
346	 0,121846248972706 
347	 0,104116850139548 
348	 9,72434622091051E-02 
349	 0,104798252672721 
350	 0,124798049361575 
351	 0,11836082590545 
352	 7,81099277876953E-02 
353	 4,86091338597259E-02 
354	 3,40898045899512E-02 
355	 3,95409183201499E-02 
356	 4,81267281193145E-02 
357	 5,79425208535757E-02 
358	 8,43851741583309E-02 
359	 9,83522651620556E-02 
360	 8,71319564965514E-02 
361	 5,08771236860426E-02 
362	 2,41577831367392E-02 
363	 0,054243435943866 
364	 8,13697454103558E-02 
365	 9,31079836978177E-02 
366	 0,092932108521637 
367	 7,89502751594645E-02 
368	 5,33078317135132E-02 
369	 3,28218581902118E-02 
370	 2,66432758812237E-02 
371	 5,01596083737078E-02 
372	 4,74234386763486E-02 
373	 1,74887334948659E-02 
374	 0,030303546477819 
375	 4,12128630466964E-02 
376	 2,05039052246174E-02 
377	 2,58852309680379E-02 
378	 4,92272667347321E-02 
379	 5,89644077159074E-02 
380	 4,84188343053119E-02 
381	 2,48401989529322E-02 
382	 4,37647825389235E-02 
383	 6,70287138137591E-02 
384	 5,96297450893218E-02 
385	 4,43050601323786E-02 
386	 3,39202714627773E-02 
387	 5,07464977415508E-02 
388	 6,04113330036367E-02 
389	 4,97491130717197E-02 
390	 2,88908784421798E-02 
391	 1,81190858319581E-02 
392	 4,12304803973705E-02 
393	 3,36385482618971E-02 
394	 3,98471825795953E-03 
395	 2,33708249974846E-02 
396	 4,13940634654403E-02 
397	 0,034722691398017 
398	 2,07994597046461E-02 
399	 1,47748856251713E-02 
400	 3,53897815420705E-02 
401	 4,00713223840595E-02 
402	 2,53480894355269E-02 
403	 2,17640854989173E-02 
404	 2,72796135255036E-02 
405	 3,78119515950426E-02 
406	 3,38350398296993E-02 
407	 2,31246987915703E-02 
408	 2,67620151299817E-02 
409	 3,23967061191399E-02 
410	 3,52197626967924E-02 
411	 3,17748608001584E-02 
412	 2,51492196622166E-02 
413	 1,89372544144562E-02 
414	 0,026212699139057 
415	 3,84153137568649E-02 
416	 2,84449132822438E-02 
417	 2,18742648728555E-02 
418	 2,69415267959147E-02 
419	 2,42510853612685E-02 
420	 1,91419912111854E-02 
421	 2,03867321230437E-02 
422	 2,48640241525013E-02 
423	 2,93662609674879E-02 
424	 2,63857797867976E-02 
425	 2,40431228673415E-02 
426	 2,62335790135692E-02 
427	 2,15469835682154E-02 
428	 1,51176464148054E-02 
429	 1,83834412785595E-02 
430	 2,27274283093395E-02 
431	 2,50953316893492E-02 
432	 2,44074298708663E-02 
433	 2,33186614242903E-02 
434	 2,41663338295496E-02 
435	 2,52438827602394E-02 
436	 2,59053568904797E-02 
437	 2,54484162767166E-02 
438	 2,44906732419277E-02 
439	 2,31251925621685E-02 
440	 2,01064985388144E-02 
441	 1,72405196169367E-02 
442	 1,68012404685904E-02 
443	 1,89805586725018E-02 
444	 2,25659181210601E-02 
445	 2,39714077444563E-02 
446	 2,39332257802509E-02 
447	 2,29590480948382E-02 
448	 2,13107630380375E-02 
449	 1,99063969950773E-02 
450	 2,00866402563446E-02 
451	 2,15751619831983E-02 
452	 2,35170691241246E-02 
453	 2,30710530120225E-02 
454	 2,08573612901134E-02 
455	 1,78174999879844E-02 
456	 1,75315784560367E-02 
457	 1,94256991836246E-02 
458	 1,99831196736706E-02 
459	 2,01799418983798E-02 
460	 2,04599475960681E-02 
461	 2,15959512801438E-02 
462	 2,27253963153116E-02 
463	 2,26442747574241E-02 
464	 2,18271934102662E-02 
465	 2,06459089537128E-02 
466	 1,95585589906249E-02 
467	 1,98368639454349E-02 
468	 2,20899147849875E-02 
469	 0,02427287283657 
470	 2,48860269163787E-02 
471	 2,14858429758288E-02 
472	 1,90754369863464E-02 
473	 1,94003763929642E-02 
474	 0,021722567823684 
475	 2,30750509022388E-02 
476	 2,07729606248925E-02 
477	 1,87795647785181E-02 
478	 1,80521757295513E-02 
479	 1,88377866418974E-02 
480	 1,90269747722116E-02 
481	 1,79997719435854E-02 
482	 1,92478509703023E-02 
483	 2,11705392403194E-02 
484	 2,09772424400832E-02 
485	 0,020141372113039 
486	 1,91336963430399E-02 
487	 1,79144383889451E-02 
488	 1,77438827661957E-02 
489	 1,93340002149453E-02 
490	 1,96806236265524E-02 
491	 1,89195214117934E-02 
492	 1,85680885624148E-02 
493	 1,80380004797351E-02 
494	 1,73365501076946E-02 
495	 1,70776620040655E-02 
496	 1,75890082470792E-02 
497	 1,91314706778575E-02 
498	 1,87370034854403E-02 
499	 1,70982210617006E-02 
500	 1,86134257079708E-02 
501	 1,98290374971018E-02 
502	 0,018930570458258 
503	 1,79987667939426E-02 
504	 1,77901833008625E-02 
505	 0,019078341305794 
506	 0,02099291795734 
507	 2,23399498918383E-02 
508	 1,94484854919854E-02 
509	 0,01684094409637 
510	 1,84776295970185E-02 
511	 0,018647855545784 
512	 1,77041573213767E-02 
513	 1,96243390921392E-02 
514	 2,08209756814185E-02 
515	 1,98087140107831E-02 
516	 1,75900058120998E-02 
517	 1,62624065239834E-02 
518	 1,85478040934934E-02 
519	 1,93428488857492E-02 
520	 1,83276633660318E-02 
521	 1,98066696721988E-02 
522	 2,07235653447327E-02 
523	 1,90417428739625E-02 
524	 1,79947727492536E-02 
525	 1,80922092223249E-02 
526	 1,94700111881091E-02 
527	 0,019666971948023 
528	 1,83107200336163E-02 
529	 1,88065565823644E-02 
530	 1,97886299918257E-02 
531	 1,94306537138982E-02 
532	 1,81882724391065E-02 
533	 1,68887575288044E-02 
534	 1,77350147099559E-02 
535	 1,86339280250983E-02 
536	 1,84290845771603E-02 
537	 1,85649277168818E-02 
538	 0,019005019911051 
539	 0,019448851030368 
540	 1,89100295207527E-02 
541	 1,75906089301876E-02 
542	 1,79327447399836E-02 
543	 1,86153596331827E-02 
544	 1,82839045745079E-02 
545	 1,85138621651182E-02 
546	 1,90972295517719E-02 
547	 1,86390927369442E-02 
548	 1,78985399213696E-02 
549	 1,74022628446683E-02 
550	 1,79858120211767E-02 
551	 1,89471134894482E-02 
552	 1,90747070269326E-02 
553	 1,90706773312159E-02 
554	 1,91314537250986E-02 
555	 1,93326555344003E-02 
556	 1,93063419545712E-02 
557	 1,87786964396194E-02 
558	 1,81973835588706E-02 
559	 1,79582225765607E-02 
560	 1,89681181059683E-02 
561	 1,92032174286911E-02 
562	 1,80827798524077E-02 
563	 1,77559613151913E-02 
564	 1,76574790100937E-02 
565	 1,67657226223993E-02 
566	 1,72844528665892E-02 
567	 1,89838764715919E-02 
568	 0,019081178313221 
569	 1,89537813743313E-02 
570	 1,94690171364392E-02 
571	 1,91489713972595E-02 
572	 0,018395648922655 
573	 1,84487967611255E-02 
574	 1,90955972152916E-02 
575	 2,00059234204383E-02 
576	 1,98092955722588E-02 
577	 1,92014582203123E-02 
578	 1,90821555265511E-02 
579	 1,95017227542242E-02 
580	 2,01735436444233E-02 
581	 2,01578458818146E-02 
582	 1,99730942417199E-02 
583	 0,019946639930301 
584	 2,01235354250304E-02 
585	 2,05309585004321E-02 
586	 2,12799617345423E-02 
587	 2,10648201533288E-02 
588	 0,020082294794269 
589	 2,11722830113241E-02 
590	 2,23385434793451E-02 
591	 0,021695763588377 
592	 2,15337763117846E-02 
593	 2,19323049068507E-02 
594	 2,18436506999126E-02 
595	 2,17790965725972E-02 
596	 2,18681188820624E-02 
597	 2,13270943139198E-02 
598	 2,09395755782919E-02 
599	 2,20126761581418E-02 
600	 2,20316403192013E-02 
601	 2,09129114004317E-02 
602	 0,02123192252347 
603	 2,19065885171144E-02 
604	 2,20460190703463E-02 
605	 2,22114651295097E-02 
606	 2,21193912604962E-02 
607	 2,07208195546968E-02 
608	 0,020075399088278 
609	 2,07552441660572E-02 
610	 2,08713567636006E-02 
611	 2,07689900987708E-02 
612	 2,10753561355454E-02 
613	 2,03261462003935E-02 
614	 1,88757855027784E-02 
615	 1,89789302622763E-02 
616	 1,96322595518258E-02 
617	 2,00702005589079E-02 
618	 1,94800383226168E-02 
619	 1,88237026743079E-02 
620	 2,03866253532354E-02 
621	 2,08904288074087E-02 
622	 1,97381012214527E-02 
623	 1,97060327727706E-02 
624	 2,00492553998407E-02 
625	 1,98519583462854E-02 
626	 1,96191287023908E-02 
627	 1,96099768851782E-02 
628	 2,04009117863304E-02 
629	 2,06448516287056E-02 
630	 1,98645039561203E-02 
631	 2,01341516070484E-02 
632	 2,09710513514701E-02 
633	 2,12164381624923E-02 
634	 2,10614380231946E-02 
635	 2,07543484273883E-02 
636	 2,11681751484896E-02 
637	 2,16782513656029E-02 
638	 2,17456255216905E-02 
639	 2,18520247165419E-02 
640	 2,19893269938528E-02 
641	 2,18531368406774E-02 
642	 0,022083310238864 
643	 2,27583770927803E-02 
644	 0,022654070427434 
645	 0,022318135978782 
646	 2,26085876457283E-02 
647	 2,22524229765699E-02 
648	 2,14529102500194E-02 
649	 2,19695730775144E-02 
650	 2,27750815034173E-02 
651	 2,30784300960785E-02 
652	 2,24040922702077E-02 
653	 2,14364180613853E-02 
654	 2,17325983985765E-02 
655	 2,19054082324048E-02 
656	 2,15250881701377E-02 
657	 2,08979882313667E-02 
658	 0,020286297202141 
659	 1,99435854823821E-02 
660	 1,97333339185124E-02 
661	 0,019647869531247 
662	 1,98262529747598E-02 
663	 1,96645024918954E-02 
664	 1,90009503002874E-02 
665	 0,019102081311694 
666	 1,94928739081819E-02 
667	 0,019198934771532 
668	 1,90799083986899E-02 
669	 1,92370322757829E-02 
670	 1,91441955212976E-02 
671	 1,88264599564906E-02 
672	 1,83765345755913E-02 
673	 1,85667206721735E-02 
674	 1,90480145356646E-02 
675	 1,86221457094207E-02 
676	 1,83393721040515E-02 
677	 1,85234135397407E-02 
678	 1,87070243432996E-02 
679	 1,87549522435972E-02 
680	 1,85597783890503E-02 
681	 1,84778086237074E-02 
682	 1,86525545676649E-02 
683	 1,93303799041735E-02 
684	 1,95353679284554E-02 
685	 0,018817390212993 
686	 1,85774338284515E-02 
687	 0,018897592912986 
688	 1,95588231715583E-02 
689	 2,02439566414758E-02 
690	 0,020914215440437 
691	 2,20230575990378E-02 
692	 2,31288373592504E-02 
693	 2,38536584671009E-02 
694	 0,024739810271847 
695	 2,60467048388291E-02 
696	 2,81250053336182E-02 
697	 3,04418072542451E-02 
698	 3,27790056016944E-02 
699	 3,52944712026385E-02 
700	 3,82072502293914E-02 
701	 4,17730403194447E-02 
702	 4,56107177579992E-02 
703	 4,96336194398106E-02 
704	 5,40403817973102E-02 
705	 5,83049610659084E-02 
706	 6,21415298846174E-02 
707	 6,61825385955057E-02 
708	 7,05675169924442E-02 
709	 7,54364896842659E-02 
710	 7,95809305168465E-02 
711	 8,29150507261174E-02 
712	 8,69901535129716E-02 
713	 9,11331509570462E-02 
714	 9,46493940477903E-02 
715	 9,75965674498837E-02 
716	 0,100322711037858 
717	 0,103701894259931 
718	 0,107041708415431 
719	 0,10996386348549 
720	 0,112107575232247 
721	 0,114047012281877 
722	 0,116551908112684 
723	 0,118860706066579 
724	 0,120770815987553 
725	 0,122271383340927 
726	 0,123610294027279 
727	 0,124978903850421 
728	 0,126481274138249 
729	 0,128013471606401 
730	 0,129379803634863 
731	 0,130527976013742 
732	 0,131451632389895 
733	 0,132237519903918 
734	 0,133024603238973 
735	 0,133887250123072 
736	 0,134098686946872 
737	 0,134146427131292 
738	 0,135640958653203 
739	 0,136720648542237 
740	 0,136790538400765 
741	 0,136827957346724 
742	 0,137193598021828 
743	 0,138184754894698 
744	 0,138847305760208 
745	 0,139094861022007 
746	 0,139451995107236 
747	 0,13967431195827 
748	 0,139711898351829 
749	 0,140057423776701 
750	 0,140630902939837 
751	 0,141219374417297 
752	 0,141776421992136 
753	 0,142209866801284 
754	 0,142289305626905 
755	 0,142403504912363 
756	 0,142811800342705 
757	 0,143050600093746 
758	 0,14323129015499 
759	 0,143726792250755 
760	 0,1442274305275 
761	 0,144604292267408 
762	 0,144771448418768 
763	 0,144986846611301 
764	 0,145474182153206 
765	 0,145781012636881 
766	 0,145900520905906 
767	 0,146062576036556 
768	 0,146139673771251 
769	 0,146136470937964 
770	 0,14630622964718 
771	 0,146570769323466 
772	 0,14681441191691 
773	 0,147384280473548 
774	 0,148039126979544 
775	 0,147848861323985 
776	 0,147564192189079 
777	 0,14760385410113 
778	 0,147882772451343 
779	 0,1482235335727 
780	 0,148385029229571 
781	 0,148278672122772 
782	 0,14802081498356 
783	 0,14808765275257 
784	 0,148279163238527 
785	 0,14846725869208 
786	 0,148761458353771 
787	 0,149089013064041 
788	 0,149317966885238 
789	 0,149371267857894 
790	 0,149376959715548 
791	 0,149993679861882 
792	 0,150466972170298 
793	 0,150250311151531 
794	 0,150418656589696 
795	 0,150845856368876 
796	 0,150869487661809 
797	 0,150855658692455 
798	 0,150990801665464 
799	 0,151613653291611 
800	 0,152041748162789 
801	 0,151692611042291 
802	 0,151848656162219 
803	 0,152418848523401 
804	 0,152577255783869 
805	 0,15244175996856 
806	 0,152187707302776 
807	 0,152593982883529 
808	 0,153231555803666 
809	 0,153571318451621 
810	 0,153641613141379 
811	 0,153550410410192 
812	 0,15357904663153 
813	 0,153712821533953 
814	 0,153953314084314 
815	 0,15426844487134 
816	 0,154575779545763 
817	 0,154784306210634 
818	 0,154938509058669 
819	 0,15498870155213 
820	 0,154701317003157 
821	 0,154666915852621 
822	 0,15512982657194 
823	 0,155613136350986 
824	 0,155986697796703 
825	 0,156157220456536 
826	 0,156187444063546 
827	 0,156144236555084 
828	 0,156079390719692 
829	 0,156446139268337 
830	 0,157310980051756 
831	 0,157445698376204 
832	 0,157118868817056 
833	 0,156890552227768 
834	 0,157578361798296 
835	 0,15881210467042 
836	 0,158693734521663 
837	 0,158340020434189 
838	 0,158403258571961 
839	 0,158898231480699 
840	 0,159361581579764 
841	 0,159144900491311 
842	 0,15904916645028 
843	 0,159165564662042 
844	 0,158992730380852 
845	 0,159248464429582 
846	 0,160100463151055 
847	 0,15978169264165 
848	 0,159158594392413 
849	 0,159711136003121 
850	 0,160044723278461 
851	 0,159959980900512 
852	 0,160014921979656 
853	 0,159915854666137 
854	 0,159610449833784 
855	 0,159769015582116 
856	 0,160217346380996 
857	 0,160611391747776 
858	 0,160640871555298 
859	 0,160289368136532 
860	 0,159778402553021 
861	 0,159431768214604 
862	 0,159428519560521 
863	 0,159480017177299 
864	 0,159868565725148 
865	 0,160966701540731 
866	 0,161558989623536 
867	 0,161518469024246 
868	 0,161438037310932 
869	 0,161413595240645 
870	 0,161548935287438 
871	 0,16198453262367 
872	 0,162321691420845 
873	 0,162108855239892 
874	 0,162523129412568 
875	 0,163388617847473 
876	 0,163397884953297 
877	 0,163585403992645 
878	 0,16424089522767 
879	 0,164431762582006 
880	 0,164439607296681 
881	 0,164629944831838 
882	 0,164573622215777 
883	 0,164480388774817 
884	 0,165138503329959 
885	 0,165566713568693 
886	 0,165540654098675 
887	 0,165938690133016 
888	 0,166326932819714 
889	 0,166288588226886 
890	 0,166477227764937 
891	 0,166635118179964 
892	 0,165862737128815 
893	 0,165790783572054 
894	 0,166688128312903 
895	 0,167227056733352 
896	 0,167266869219058 
897	 0,166773371551427 
898	 0,166102170233664 
899	 0,165904318005627 
900	 0,167220128761233 
901	 0,167442278687092 
902	 0,166298421895437 
903	 0,165786312774538 
904	 0,16595038447643 
905	 0,166715175274999 
906	 0,167331302780654 
907	 0,167451375145228 
908	 0,166776945364365 
909	 0,166408716345542 
910	 0,16657665096051 
911	 0,167018801498155 
912	 0,167331231755251 
913	 0,167324228521394 
914	 0,167241939594913 
915	 0,167369355496038 
916	 0,167944501230555 
917	 0,167964330147008 
918	 0,167622267557646 
919	 0,167942836048086 
920	 0,168342076066689 
921	 0,16847518753813 
922	 0,167694900769354 
923	 0,167008425229999 
924	 0,16730795370168 
925	 0,168560816607937 
926	 0,169536981501431 
927	 0,168082801358421 
928	 0,167528515878585 
929	 0,168209885996326 
930	 0,167414615544202 
931	 0,167181861490917 
932	 0,168420732804036 
933	 0,16867925406388 
934	 0,168239793494417 
935	 0,167835280304995 
936	 0,167568471304281 
937	 0,167247730200529 
938	 0,166015121901632 
939	 0,165642555761922 
940	 0,166521745401924 
941	 0,166916488877795 
942	 0,16639522391834 
943	 0,164902119921716 
944	 0,165075122456669 
945	 0,16588541963346 
946	 0,164563789028137 
947	 0,16382124225249 
948	 0,163958905012918 
949	 0,163149365850327 
950	 0,16213845213561 
951	 0,161422520155787 
952	 0,161290721638518 
953	 0,160839708572217 
954	 0,159079960385254 
955	 0,159329906004825 
956	 0,160684788100503 
957	 0,158952026820993 
958	 0,157505908445813 
959	 0,157346718108588 
960	 0,157349883539012 
961	 0,157514829124758 
962	 0,157797125938452 
963	 0,157909880117726 
964	 0,157540435973545 
965	 0,1563243938211 
966	 0,155277198671568 
967	 0,15470739025681 
968	 0,154456790448764 
969	 0,155041331726609 
970	 0,156218495443782 
971	 0,155744399948146 
972	 0,154646183024342 
973	 0,154038548211645 
974	 0,15387912261147 
975	 0,154128831031998 
976	 0,154695167397924 
977	 0,154325267447834 
978	 0,153372724789773 
979	 0,154102796666243 
980	 0,156244247876527 
981	 0,159150020403992 
982	 0,160320744340393 
983	 0,159351719886085 
984	 0,156479199193685 
985	 0,156004098077012 
986	 0,157867040505181 
987	 0,160255294630063 
988	 0,160428085015532 
989	 0,158889402185716 
990	 0,16101958691834 
991	 0,162549059995323 
992	 0,161538724216584 
993	 0,160677175823091 
994	 0,160845101410714 
995	 0,162471226794421 
996	 0,162242177226916 
997	 0,161430980621683 
998	 0,163780819150011 
999	 0,164468690631347 
1000	 0,163531403042511 
1001	 0,166248564776501 
1002	 0,168597094707354 
1003	 0,168426828626623 
1004	 0,165749235317743 
1005	 0,164455934408967 
1006	 0,167747738230061 
1007	 0,16789097883266 
1008	 0,166143161729835 
1009	 0,167138881111049 
1010	 0,167542007943917 
1011	 0,1668189776236 
1012	 0,165562967462716 
1013	 0,167296366104567 
1014	 0,172094097233233 
1015	 0,172000444637895 
1016	 0,169968652545816 
1017	 0,169309837635422 
1018	 0,17281252478465 
1019	 0,17614721648468 
1020	 0,172514289007508 
1021	 0,171804919827952 
1022	 0,174737872842301 
1023	 0,17656794888731 
1024	 0,176891583704346 
1025	 0,176204252005015 
1026	 0,178560247392099 
1027	 0,179309160898376 
1028	 0,176176020394076 
1029	 0,175814812269967 
1030	 0,178874583645319 
1031	 0,184554016331475 
1032	 0,183867214664062 
1033	 0,179986261428524 
1034	 0,182952665613415 
1035	 0,186880728604557 
1036	 0,188562363409786 
1037	 0,182355663252724 
1038	 0,179364102228122 
1039	 0,182447148818783 
1040	 0,176334636179835 
1041	 0,173300275498553 
1042	 0,182209126467732 
1043	 0,183864393394944 
1044	 0,180563586839025 
1045	 0,179210208672387 
1046	 0,179363727996769 
1047	 0,183977957501868 
1048	 0,199976867095462 
1049	 0,200206667187676 
1050	 0,184845762221903 
1051	 0,189747633617031 
1052	 0,194638583941234 
1053	 0,190686422054728 
1054	 0,188274779221078 
1055	 0,189699710453247 
1056	 0,194964855328302 
1057	 0,192677051203452 
1058	 0,187042234479376 
1059	 0,18652654317121 
1060	 0,18632445555134 
1061	 0,185254280810561 
1062	 0,182490538674314 
1063	 0,18557209006635 
1064	 0,191583379753429 
1065	 0,179919412616146 
1066	 0,180426002614069 
1067	 0,197664652126245 
1068	 0,179452703979277 
1069	 0,168896813846357 
1070	 0,196518747770919 
1071	 0,208764318641139 
1072	 0,208377045000659 
1073	 0,205076951277557 
1074	 0,1983030264934 
1075	 0,192426691295313 
