Wavelength	SCORFF200129.asd
325	 0,249100883549658 
326	 0,154286749008844 
327	 2,43007266596392E-03 
328	-0,110707177095809 
329	 5,00796910836692E-02 
330	 0,204480057206809 
331	 0,17039968839132 
332	 0,122904024738921 
333	 0,11234623013784 
334	 0,165783405853695 
335	 0,191220056254916 
336	 0,153146413392315 
337	 9,43621853077383E-02 
338	 0,020573921319149 
339	-1,78338839824639E-02 
340	 3,41426053084261E-02 
341	 0,10200515041371 
342	 0,043588595084531 
343	 7,93227719272158E-02 
344	 0,198345955545302 
345	 0,116994458575581 
346	 1,24109354130918E-03 
347	 2,52751564428435E-02 
348	 9,07486976541548E-02 
349	 0,145242441659961 
350	 0,124035848564941 
351	 9,63429989845425E-02 
352	 9,25149434943397E-02 
353	 7,75082543011487E-02 
354	 5,64494959196778E-02 
355	 3,76939298677475E-02 
356	 3,19967319396165E-02 
357	 0,043527501721253 
358	 7,97580728929356E-02 
359	 8,17497089681777E-02 
360	 3,04954491312368E-02 
361	-6,75493860381066E-03 
362	-4,66658256224132E-03 
363	 5,48460842009959E-02 
364	 7,23450860440674E-02 
365	 4,89430671846358E-02 
366	 6,64807311406352E-02 
367	 8,36307216496974E-02 
368	 7,53899619896104E-02 
369	 5,32681533001841E-02 
370	 2,88311238686774E-02 
371	 2,27729781889551E-02 
372	 2,81543057179435E-02 
373	 4,17936039399225E-02 
374	 6,35037798404409E-02 
375	 6,44397339975793E-02 
376	 3,01368531673692E-02 
377	 3,37255096468996E-02 
378	 5,93910035015443E-02 
379	 4,92480580332558E-02 
380	 4,12442443672716E-02 
381	 0,045188534222486 
382	 5,06483148812841E-02 
383	 4,43628557516109E-02 
384	 1,77869849194266E-02 
385	 2,31944706163915E-02 
386	 5,07354272721785E-02 
387	 4,95320419691018E-02 
388	 5,36810130248393E-02 
389	 6,67665646138888E-02 
390	 3,51948515221672E-02 
391	 3,41593713314593E-03 
392	 3,06066645290335E-02 
393	 3,26561721767082E-02 
394	 1,16591925675268E-02 
395	 0,032837767863984 
396	 4,30423911935556E-02 
397	 2,16022841333145E-02 
398	 1,67389127095121E-02 
399	 2,47705645508251E-02 
400	 0,032461376332129 
401	 3,10052525871573E-02 
402	 2,06345436361913E-02 
403	 1,01033304027176E-02 
404	 1,23533784094096E-02 
405	 3,27490105901986E-02 
406	 4,01296492466086E-02 
407	 3,68231381661356E-02 
408	 3,59073531819296E-02 
409	 3,73348347398476E-02 
410	 3,88863152977619E-02 
411	 2,79345154911972E-02 
412	 1,84852877424559E-02 
413	 2,32867031931926E-02 
414	 2,90395444456777E-02 
415	 3,23537591070815E-02 
416	 0,032611709224039 
417	 2,97505692980555E-02 
418	 2,51276222131455E-02 
419	 2,56933546448323E-02 
420	 2,74856179273358E-02 
421	 2,47181066121267E-02 
422	 2,52328601650595E-02 
423	 2,85623163577991E-02 
424	 2,72840992994907E-02 
425	 2,69824154672893E-02 
426	 0,030176931030348 
427	 2,81508669459327E-02 
428	 0,023783146858554 
429	 2,38101161353834E-02 
430	 2,69210169709215E-02 
431	 3,12562537612084E-02 
432	 3,07265310371909E-02 
433	 2,87777211128929E-02 
434	 0,028696463558511 
435	 2,95708396901772E-02 
436	 3,06060454583542E-02 
437	 3,01232046158035E-02 
438	 2,97982890015155E-02 
439	 3,01757386075234E-02 
440	 3,02864536358555E-02 
441	 2,97386632782849E-02 
442	 2,81795910434121E-02 
443	 2,62823669221774E-02 
444	 2,54749109532814E-02 
445	 3,02762944223786E-02 
446	 3,21073662182457E-02 
447	 2,67773310070209E-02 
448	 2,74226926419591E-02 
449	 3,14369055705728E-02 
450	 3,05676472772527E-02 
451	 0,029657910381465 
452	 3,00778520926253E-02 
453	 3,15950179158262E-02 
454	 3,25495172271486E-02 
455	 3,14598823433287E-02 
456	 2,93324181545304E-02 
457	 2,73195639622503E-02 
458	 2,74536120765816E-02 
459	 2,91366722671508E-02 
460	 3,15273823286157E-02 
461	 3,12372442673222E-02 
462	 3,03168355807185E-02 
463	 3,19328694552068E-02 
464	 3,15707277539106E-02 
465	 2,91960470055722E-02 
466	 2,83861275827584E-02 
467	 2,91078487412371E-02 
468	 3,10033341430919E-02 
469	 3,13756418815324E-02 
470	 0,030356798532732 
471	 2,89803237153025E-02 
472	 2,77884455042169E-02 
473	 2,76084997060006E-02 
474	 3,09987383095771E-02 
475	 3,35103832998832E-02 
476	 3,09171476996389E-02 
477	 2,90033169600393E-02 
478	 2,89881986777115E-02 
479	 3,09709321970417E-02 
480	 3,15626555645256E-02 
481	 2,95331213226018E-02 
482	 2,88800498220317E-02 
483	 2,92016970123607E-02 
484	 2,91964803379012E-02 
485	 3,01525001022119E-02 
486	 3,15399157296848E-02 
487	 2,99955211139283E-02 
488	 2,98621750938019E-02 
489	 3,38002331329933E-02 
490	 3,27868164987241E-02 
491	 2,91250678808639E-02 
492	 3,15523523866682E-02 
493	 3,31230169486898E-02 
494	 3,20269943914095E-02 
495	 3,20066592349922E-02 
496	 3,24340847619157E-02 
497	 0,032314387761416 
498	 0,032811007472162 
499	 3,34383071354715E-02 
500	 3,19349586330981E-02 
501	 3,05007755418644E-02 
502	 3,04843869173706E-02 
503	 3,18573295501325E-02 
504	 3,31949231810736E-02 
505	 3,19494408717965E-02 
506	 3,22939042727395E-02 
507	 3,45156131548171E-02 
508	 3,42115845515931E-02 
509	 3,30823266322553E-02 
510	 3,28512440077012E-02 
511	 3,31715845969159E-02 
512	 3,38714812891391E-02 
513	 3,46697073659986E-02 
514	 3,53572470309699E-02 
515	 3,56081280446011E-02 
516	 3,40157468855662E-02 
517	 3,28032056741072E-02 
518	 3,52181698465334E-02 
519	 3,60514371402507E-02 
520	 3,48038621398899E-02 
521	 3,49095852309715E-02 
522	 3,53735915317814E-02 
523	 3,55128095663936E-02 
524	 0,036332132678771 
525	 3,75996097433252E-02 
526	 3,87336379221597E-02 
527	 3,86800352429035E-02 
528	 3,74698286439324E-02 
529	 0,037535908317248 
530	 3,81228466494134E-02 
531	 3,81502318189141E-02 
532	 3,71918826177558E-02 
533	 3,59427868220529E-02 
534	 3,67976457839051E-02 
535	 0,038142208764863 
536	 3,88889553121168E-02 
537	 3,85186858791523E-02 
538	 3,78255449152658E-02 
539	 0,038384833901814 
540	 3,90432257984006E-02 
541	 3,93477882657496E-02 
542	 3,89654887810833E-02 
543	 3,85877905171249E-02 
544	 3,88839043787526E-02 
545	 0,039238174630485 
546	 3,95264275094853E-02 
547	 3,98611255075333E-02 
548	 3,98045432741502E-02 
549	 3,93000295156903E-02 
550	 3,95336047876719E-02 
551	 0,040115314546695 
552	 4,02275091464235E-02 
553	 4,04433590191203E-02 
554	 4,07775759611959E-02 
555	 4,06869553390751E-02 
556	 4,05590958047284E-02 
557	 4,07277182951495E-02 
558	 4,11231471734615E-02 
559	 4,14259904263116E-02 
560	 4,07747863490407E-02 
561	 4,06370487206449E-02 
562	 4,14075772627761E-02 
563	 4,15214209781829E-02 
564	 0,041209079835456 
565	 4,09619592597539E-02 
566	 4,11215357349764E-02 
567	 0,041671316043906 
568	 4,21688363067401E-02 
569	 4,25746753909947E-02 
570	 4,28301643305671E-02 
571	 4,26986828115021E-02 
572	 4,24927805904906E-02 
573	 4,28875106682986E-02 
574	 4,36870664508323E-02 
575	 4,46840711710731E-02 
576	 4,53129570772694E-02 
577	 4,53218792693561E-02 
578	 4,45312643017635E-02 
579	 0,044462504660701 
580	 4,52391731829983E-02 
581	 4,61228573301006E-02 
582	 4,63076500804313E-02 
583	 4,54983413474684E-02 
584	 4,54234023343483E-02 
585	 4,61508762989387E-02 
586	 4,74576786854711E-02 
587	 4,78296141510765E-02 
588	 4,70692170799377E-02 
589	 4,66757333226857E-02 
590	 4,68847985181999E-02 
591	 0,047782095735027 
592	 4,81616616907923E-02 
593	 4,79610965752509E-02 
594	 4,77167414381258E-02 
595	 4,76350655216693E-02 
596	 4,78406903410182E-02 
597	 4,81728925313011E-02 
598	 4,86130542844916E-02 
599	 4,92069146084442E-02 
600	 4,88869900348231E-02 
601	 0,04784409274735 
602	 4,79652551544094E-02 
603	 4,85243020609856E-02 
604	 4,88927657547019E-02 
605	 4,91576282512594E-02 
606	 4,91512454265799E-02 
607	 0,048411902743642 
608	 4,80041362431115E-02 
609	 4,81801427950039E-02 
610	 4,76301304779643E-02 
611	 4,70914762106924E-02 
612	 4,75836714915447E-02 
613	 4,76629695888009E-02 
614	 4,72232040903467E-02 
615	 4,70993026217748E-02 
616	 4,73686537286253E-02 
617	 4,79530104285701E-02 
618	 4,75649081283174E-02 
619	 4,69237469435725E-02 
620	 4,78599792308555E-02 
621	 0,048568460822581 
622	 4,85152990224448E-02 
623	 4,82019037372768E-02 
624	 0,047989589027622 
625	 0,048208157892258 
626	 4,84726157039645E-02 
627	 4,86229841850188E-02 
628	 4,84675100212113E-02 
629	 4,83145103368167E-02 
630	 4,83218724331299E-02 
631	 4,82681023699608E-02 
632	 4,83869215313797E-02 
633	 4,91319090610305E-02 
634	 4,91718553552294E-02 
635	 0,048546691446245 
636	 4,92344977101332E-02 
637	 0,049780541765909 
638	 4,90284496438968E-02 
639	 4,91716842078165E-02 
640	 5,01674693500345E-02 
641	 5,09712540336826E-02 
642	 5,13471596322113E-02 
643	 5,11808966958572E-02 
644	 5,07268754812447E-02 
645	 5,06385191604223E-02 
646	 0,051701174019416 
647	 5,18808747436459E-02 
648	 5,10868132650686E-02 
649	 5,09299517718288E-02 
650	 5,10311887230346E-02 
651	 5,10853521332324E-02 
652	 0,050663695214357 
653	 5,00910980238234E-02 
654	 5,02065861991595E-02 
655	 5,00344448568666E-02 
656	 4,94296006316544E-02 
657	 4,94000909814625E-02 
658	 4,93710424166543E-02 
659	 4,87050308727035E-02 
660	 4,78754794177626E-02 
661	 4,71913847059956E-02 
662	 4,72687724198266E-02 
663	 4,70430537585867E-02 
664	 4,61337396714806E-02 
665	 4,60245302882652E-02 
666	 4,63333655830226E-02 
667	 4,61986915442027E-02 
668	 4,61289519074548E-02 
669	 4,61514218090685E-02 
670	 4,58415054444405E-02 
671	 4,56139007918326E-02 
672	 4,57973261665739E-02 
673	 4,61152586372247E-02 
674	 4,63867710849994E-02 
675	 4,63618178340796E-02 
676	 4,60483182049793E-02 
677	 4,56102075343081E-02 
678	 4,58764898177075E-02 
679	 4,63981404066136E-02 
680	 4,65640219152803E-02 
681	 4,66036315836328E-02 
682	 4,67334767825279E-02 
683	 4,75431471980296E-02 
684	 4,81192705391071E-02 
685	 4,80103580147835E-02 
686	 4,82782732979936E-02 
687	 4,89431738933142E-02 
688	 4,97801598574541E-02 
689	 5,06207406648255E-02 
690	 5,14104981231979E-02 
691	 0,052241253646877 
692	 5,32296628564556E-02 
693	 5,44526472451442E-02 
694	 5,53868824034305E-02 
695	 0,056425213363837 
696	 5,88242196447145E-02 
697	 6,14011976206434E-02 
698	 6,36401542211047E-02 
699	 6,56943719489402E-02 
700	 6,79184994143276E-02 
701	 0,070748070096556 
702	 7,35333901131909E-02 
703	 7,61258422535971E-02 
704	 0,0786716316485 
705	 8,11996642527017E-02 
706	 8,37081658218316E-02 
707	 8,59653936770665E-02 
708	 8,82087644595986E-02 
709	 9,09710751031523E-02 
710	 9,32497802790972E-02 
711	 9,49189478993278E-02 
712	 9,69249265209779E-02 
713	 9,90503745511196E-02 
714	 0,101034095337137 
715	 0,102643521769958 
716	 0,103945479488325 
717	 0,105259300882684 
718	 0,106425920406018 
719	 0,107448224674416 
720	 0,108638378841441 
721	 0,109926378760893 
722	 0,111186919682058 
723	 0,112298025447993 
724	 0,113207525262427 
725	 0,113904714230267 
726	 0,114437543290628 
727	 0,114881363976244 
728	 0,115534492713335 
729	 0,116244964509434 
730	 0,116649989114951 
731	 0,117204378043226 
732	 0,11792987352522 
733	 0,118307858768128 
734	 0,118624471529574 
735	 0,119121348904916 
736	 0,11934432380823 
737	 0,119474237972425 
738	 0,120223724608702 
739	 0,120602434857313 
740	 0,12039897249048 
741	 0,120721426883834 
742	 0,121224756776892 
743	 0,121410305787122 
744	 0,121533382390503 
745	 0,121649607229174 
746	 0,121754332340257 
747	 0,121895086407814 
748	 0,122096356731674 
749	 0,122292874806838 
750	 0,122563724228167 
751	 0,123054314751737 
752	 0,123258648563269 
753	 0,123187995678729 
754	 0,123454716441327 
755	 0,123800895815676 
756	 0,124021100864713 
757	 0,124075578426752 
758	 0,124125556382022 
759	 0,124530522909415 
760	 0,124779321347764 
761	 0,124786610611112 
762	 0,124992927579707 
763	 0,125325166666559 
764	 0,125674471010396 
765	 0,125753238114276 
766	 0,125687659288196 
767	 0,125963613374287 
768	 0,126219283630589 
769	 0,126321912723883 
770	 0,126381152865237 
771	 0,126437653187923 
772	 0,126533206103422 
773	 0,126963570151981 
774	 0,12753281907085 
775	 0,127479310084613 
776	 0,127284041514952 
777	 0,127201633078324 
778	 0,127078840095518 
779	 0,127110658283233 
780	 0,127598113174327 
781	 0,127654892209917 
782	 0,127303509031225 
783	 0,127525063373303 
784	 0,127891122637653 
785	 0,12810281855864 
786	 0,12817577254122 
787	 0,12822829506307 
788	 0,128473488086936 
789	 0,1287315576321 
790	 0,128944284458293 
791	 0,129157585847375 
792	 0,129187460095244 
793	 0,128943409181157 
794	 0,129097068278062 
795	 0,129450282449276 
796	 0,129312688636994 
797	 0,129294198859497 
798	 0,129545154657598 
799	 0,129758910739658 
800	 0,129938216234785 
801	 0,13010259605502 
802	 0,130345466725638 
803	 0,130532272075565 
804	 0,130188951266085 
805	 0,130343903671733 
806	 0,131131364212174 
807	 0,131004789594831 
808	 0,130638486060923 
809	 0,130846565961322 
810	 0,130838028097817 
811	 0,130739502545431 
812	 0,131378909876321 
813	 0,131815918796864 
814	 0,131691702062025 
815	 0,131468964582807 
816	 0,131500564855804 
817	 0,132119635285993 
818	 0,132184853737885 
819	 0,131775964932273 
820	 0,131983264054754 
821	 0,132120892336314 
822	 0,131947311255476 
823	 0,132074927737235 
824	 0,132247023567126 
825	 0,132071500336982 
826	 0,132356404866738 
827	 0,13300106233005 
828	 0,133091903856624 
829	 0,133044791252246 
830	 0,133051411697667 
831	 0,13287227421378 
832	 0,132764391763072 
833	 0,133087911481595 
834	 0,134025535231341 
835	 0,135051304081439 
836	 0,13439140522476 
837	 0,133699921320914 
838	 0,133830100638556 
839	 0,133765640027754 
840	 0,133691379603342 
841	 0,134005602748013 
842	 0,13418790614978 
843	 0,134182699691356 
844	 0,13427079260983 
845	 0,13441642506061 
846	 0,13456467510105 
847	 0,134455755228543 
848	 0,134283976615721 
849	 0,134357881849787 
850	 0,13452489839374 
851	 0,134648187798368 
852	 0,134442233401474 
853	 0,134089387799332 
854	 0,133763133011311 
855	 0,133835392153305 
856	 0,134095049610027 
857	 0,134194199029357 
858	 0,13434861949655 
859	 0,134497640185892 
860	 0,13433093612189 
861	 0,134083237780756 
862	 0,133886771426065 
863	 0,133602468405883 
864	 0,133687766481795 
865	 0,134703586686106 
866	 0,134981130421669 
867	 0,134542453161597 
868	 0,134823263577422 
869	 0,134890434113536 
870	 0,134420137906375 
871	 0,134137565450849 
872	 0,134281197855093 
873	 0,135016371606843 
874	 0,135675664360555 
875	 0,135978570662084 
876	 0,135584749605439 
877	 0,13554607538625 
878	 0,136180479595074 
879	 0,136358712566173 
880	 0,136464053252541 
881	 0,136950251563233 
882	 0,136651702654339 
883	 0,135939858555829 
884	 0,136405749650552 
885	 0,13677238655655 
886	 0,136700803714341 
887	 0,136976754758466 
888	 0,137122644747845 
889	 0,136730521432415 
890	 0,136988849985895 
891	 0,137470549854506 
892	 0,13672045279171 
893	 0,136401517780458 
894	 0,136898571495351 
895	 0,137392758180053 
896	 0,137428664496272 
897	 0,136750684464251 
898	 0,136283803115954 
899	 0,136200612590884 
900	 0,136505219225359 
901	 0,136789885497154 
902	 0,136890675323511 
903	 0,136768585359498 
904	 0,136701207208693 
905	 0,136840972087559 
906	 0,136860459939715 
907	 0,136983134235791 
908	 0,137569471314235 
909	 0,136904017836291 
910	 0,135620633615475 
911	 0,137139598130971 
912	 0,138207602305428 
913	 0,137442827360793 
914	 0,136467672304704 
915	 0,1363695426406 
916	 0,138022328708164 
917	 0,138106958385743 
918	 0,137030206382508 
919	 0,137720469099969 
920	 0,13791101335252 
921	 0,137074579014504 
922	 0,136391763130771 
923	 0,136314228822559 
924	 0,137103645671152 
925	 0,1378724604878 
926	 0,138363535704499 
927	 0,138475841330046 
928	 0,137931732612395 
929	 0,137067349557564 
930	 0,137280801911645 
931	 0,13770450218831 
932	 0,137835333912134 
933	 0,138015079419137 
934	 0,138370185853779 
935	 0,139010917073912 
936	 0,139750631136692 
937	 0,140147946728467 
938	 0,139062988425326 
939	 0,138509355002589 
940	 0,139037287306041 
941	 0,13899979448182 
942	 0,138512685826032 
943	 0,137847605692164 
944	 0,137845612823596 
945	 0,138243524028944 
946	 0,13822694879426 
947	 0,139131532753738 
948	 0,140343091991024 
949	 0,138226874256634 
950	 0,136761283978526 
951	 0,137861881109038 
952	 0,137686415519444 
953	 0,136752163636915 
954	 0,136181459730138 
955	 0,136524712556978 
956	 0,137336230942399 
957	 0,137248685585149 
958	 0,136195890974435 
959	 0,134714418000595 
960	 0,135186962646178 
961	 0,136806590783344 
962	 0,138463355999681 
963	 0,137192304442814 
964	 0,134698939449536 
965	 0,134187263855924 
966	 0,134966720185282 
967	 0,136453731711282 
968	 0,137459672799609 
969	 0,137297450537587 
970	 0,13616832790455 
971	 0,137279817555789 
972	 0,137508386835498 
973	 0,134369768321002 
974	 0,134605658198031 
975	 0,137026976972307 
976	 0,137493009527805 
977	 0,136535496310152 
978	 0,134905311563809 
979	 0,134809348243363 
980	 0,135517764204425 
981	 0,136759310989111 
982	 0,139342536719903 
983	 0,140819201451603 
984	 0,138976766817898 
985	 0,137495923727604 
986	 0,137365572997403 
987	 0,139091022181995 
988	 0,139103061152214 
989	 0,137213142652748 
990	 0,136847416078566 
991	 0,137154386541718 
992	 0,137803304793728 
993	 0,139426757180615 
994	 0,141110901368166 
995	 0,141745979506272 
996	 0,139388755609515 
997	 0,13660007398216 
998	 0,138967957599736 
999	 0,1399283736307 
1000	 0,13898058753497 
1001	 0,141506422172501 
1002	 0,143247537259116 
1003	 0,142427795776112 
1004	 0,142124104889981 
1005	 0,141834142543781 
1006	 0,14112550241666 
1007	 0,143275052875394 
1008	 0,146415980952809 
1009	 0,146422971383771 
1010	 0,144004367375848 
1011	 0,14045521232469 
1012	 0,13877110732561 
1013	 0,140365580408607 
1014	 0,144754312307521 
1015	 0,146284169035123 
1016	 0,145677913786009 
1017	 0,1440864608961 
1018	 0,143282017791695 
1019	 0,143281223956151 
1020	 0,143570994783589 
1021	 0,143650536090654 
1022	 0,143403102863342 
1023	 0,142735578001546 
1024	 0,1438828721967 
1025	 0,146585803071901 
1026	 0,146080651013758 
1027	 0,144581522225772 
1028	 0,143845824186104 
1029	 0,144439864669504 
1030	 0,145436581490914 
1031	 0,145688620716485 
1032	 0,145834748143114 
1033	 0,146693817370804 
1034	 0,149561110142979 
1035	 0,153702216397693 
1036	 0,156547637310156 
1037	 0,150057191440038 
1038	 0,14612317924211 
1039	 0,147937012582977 
1040	 0,139869670693545 
1041	 0,13511585658081 
1042	 0,143264526293301 
1043	 0,143297375577377 
1044	 0,140511125601129 
1045	 0,145645951384911 
1046	 0,147148408560549 
1047	 0,147703047458101 
1048	 0,160039189540872 
1049	 0,157479528659876 
1050	 0,140694474444087 
1051	 0,145861903494656 
1052	 0,154358775967525 
1053	 0,15640798771533 
1054	 0,153610887106708 
1055	 0,150599902527486 
1056	 0,150965372770766 
1057	 0,148787923827251 
1058	 0,145637403164631 
1059	 0,145140000113891 
1060	 0,150282391450061 
1061	 0,156083850016165 
1062	 0,150198188802842 
1063	 0,149639233058883 
1064	 0,155291912391602 
1065	 0,149566935511994 
1066	 0,151228199838971 
1067	 0,16168797055078 
1068	 0,141074634332436 
1069	 0,130011065539265 
1070	 0,15521449285432 
1071	 0,151266542559376 
1072	 0,139762851486693 
1073	 0,151313644804526 
1074	 0,148564568281291 
1075	 0,138098145343953 
