Wavelength	SCORFF200578.asd
325	 0,309517930439699 
326	 0,346752058554437 
327	 0,328275357055331 
328	 0,251661273015037 
329	 0,253707903023078 
330	 0,307662920632899 
331	 0,390850264490432 
332	 0,385901986483146 
333	 0,318453646888384 
334	 0,247547789058723 
335	 0,244224539762805 
336	 0,298161158816897 
337	 0,233788636726569 
338	 0,150162667543485 
339	 0,189308802973505 
340	 0,233151718059169 
341	 0,243697953157254 
342	 0,187544237539728 
343	 0,212299413478629 
344	 0,305509196011357 
345	 0,248633948037791 
346	 0,169960865518173 
347	 0,202087032667656 
348	 0,241338920692867 
349	 0,266077480170134 
350	 0,280059003089752 
351	 0,291477829177479 
352	 0,295580405075945 
353	 0,266336726103808 
354	 0,221604776230889 
355	 0,182009893461065 
356	 0,19598981757112 
357	 0,236974240939511 
358	 0,206333922368444 
359	 0,196309362246363 
360	 0,233244667970797 
361	 0,195738926714625 
362	 0,148971580791196 
363	 0,206669873245813 
364	 0,228337081335929 
365	 0,207185104554069 
366	 0,226769500613577 
367	 0,242211557420118 
368	 0,226640855773313 
369	 0,191124431835514 
370	 0,159106775146171 
371	 0,174947406080487 
372	 0,18774889957579 
373	 0,188793379004443 
374	 0,209538058405952 
375	 0,215982856324581 
376	 0,188347725305438 
377	 0,188228244931652 
378	 0,208161623125978 
379	 0,211684254157814 
380	 0,214891636594268 
381	 0,222423527676217 
382	 0,237766932433163 
383	 0,238286447251085 
384	 0,207086714617943 
385	 0,191333547461858 
386	 0,195328736134386 
387	 0,205556365035557 
388	 0,211651588964816 
389	 0,207697011853292 
390	 0,191577131469696 
391	 0,18045234544003 
392	 0,195522854928808 
393	 0,192916702413834 
394	 0,176877949981073 
395	 0,191674303790186 
396	 0,199564443149117 
397	 0,185937660537793 
398	 0,186651117165037 
399	 0,194516807525562 
400	 0,193404813777885 
401	 0,190144987393125 
402	 0,186885018920856 
403	 0,18418868754917 
404	 0,185463290619273 
405	 0,191601053798404 
406	 0,188476860010526 
407	 0,182944349197653 
408	 0,193121989925774 
409	 0,201688563259726 
410	 0,202777150545769 
411	 0,196015239096242 
412	 0,188299694124504 
413	 0,185856441909224 
414	 0,185835560255388 
415	 0,187734783820036 
416	 0,192344761254693 
417	 0,194913402997046 
418	 0,193491523347055 
419	 0,189805229958038 
420	 0,188613922168529 
421	 0,19564312576328 
422	 0,19545866716808 
423	 0,188809974488747 
424	 0,190336146710304 
425	 0,191364023231465 
426	 0,187363454049165 
427	 0,186462377492949 
428	 0,187186989577895 
429	 0,184570892472797 
430	 0,185579378281615 
431	 0,190637518214732 
432	 0,193103327890584 
433	 0,192792965308406 
434	 0,190185987109262 
435	 0,191473125220045 
436	 0,194595028084665 
437	 0,191056816816578 
438	 0,188933911473816 
439	 0,191051594470169 
440	 0,193664968457565 
441	 0,193764982702399 
442	 0,188163562666262 
443	 0,186191836073353 
444	 0,189114458657817 
445	 0,193287038451492 
446	 0,194910265373694 
447	 0,192082300133778 
448	 0,190703463154503 
449	 0,19146743113589 
450	 0,193993593855479 
451	 0,196197559070722 
452	 0,19711413230838 
453	 0,196678828858986 
454	 0,194749178564787 
455	 0,191461059871289 
456	 0,190759546543664 
457	 0,192575865672625 
458	 0,194770337354511 
459	 0,195344765756116 
460	 0,194068011592806 
461	 0,196237468480764 
462	 0,199012185211937 
463	 0,198059054095268 
464	 0,195199371185334 
465	 0,19198051792558 
466	 0,191459091051569 
467	 0,193357975618494 
468	 0,196756516699811 
469	 0,195785200682735 
470	 0,192854107350682 
471	 0,194466134305301 
472	 0,195904161376699 
473	 0,195925614772103 
474	 0,196178323758767 
475	 0,196167459253811 
476	 0,195390778904964 
477	 0,19512875098428 
478	 0,195149197058749 
479	 0,193954629255367 
480	 0,193115960943632 
481	 0,193303668177732 
482	 0,193548637849288 
483	 0,193877551020408 
484	 0,194500116116326 
485	 0,195178972101577 
486	 0,195622682630837 
487	 0,19512282058382 
488	 0,194566821718355 
489	 0,194562544952505 
490	 0,193619279970015 
491	 0,192667380553779 
492	 0,194786096224916 
493	 0,194497282476213 
494	 0,191061544745211 
495	 0,191506985753878 
496	 0,193645731354667 
497	 0,194413230251583 
498	 0,193452267372612 
499	 0,191691583580717 
500	 0,192490417537823 
501	 0,192748206772294 
502	 0,191099175700618 
503	 0,191452574974131 
504	 0,193139976848383 
505	 0,194092945164254 
506	 0,195764472192246 
507	 0,19776425316961 
508	 0,196916940298167 
509	 0,195600354417841 
510	 0,19603715109915 
511	 0,196894379045367 
512	 0,197413003191085 
513	 0,196216671116347 
514	 0,195342699954437 
515	 0,195542990423124 
516	 0,195260058924504 
517	 0,194843489250648 
518	 0,194960429471323 
519	 0,19573839961993 
520	 0,196949186730395 
521	 0,197842493217518 
522	 0,197971939260677 
523	 0,197179401336455 
524	 0,197167095887877 
525	 0,197910838402462 
526	 0,198887846650586 
527	 0,19879408152592 
528	 0,197602910894681 
529	 0,198081151123873 
530	 0,198939154786312 
531	 0,198490120345589 
532	 0,197486530394998 
533	 0,196435441474026 
534	 0,196219324708497 
535	 0,196573832695863 
536	 0,197203269194424 
537	 0,197042661121752 
538	 0,196603193289152 
539	 0,197103361364144 
540	 0,197599896867279 
541	 0,197893167545232 
542	 0,198528649746355 
543	 0,199002567858337 
544	 0,198835076479967 
545	 0,198738212595741 
546	 0,198874456232706 
547	 0,199262992995573 
548	 0,199531582408863 
549	 0,199528387620209 
550	 0,199647108123873 
551	 0,19987584336886 
552	 0,200104344567146 
553	 0,20072393635519 
554	 0,201520586946248 
555	 0,201395638202979 
556	 0,200585575224649 
557	 0,199415496656822 
558	 0,199009811595454 
559	 0,199229601186748 
560	 0,199149885889276 
561	 0,199107899628749 
562	 0,199127768802064 
563	 0,198744861183534 
564	 0,198249023124826 
565	 0,19805928488641 
566	 0,198442689619548 
567	 0,19919939714497 
568	 0,199374027204824 
569	 0,199581699224025 
570	 0,200174228973686 
571	 0,199957593270989 
572	 0,19983111252597 
573	 0,202260930560394 
574	 0,203917773491577 
575	 0,20388005920465 
576	 0,204092892193464 
577	 0,205007853484931 
578	 0,206930208928974 
579	 0,208099658859424 
580	 0,208561654600871 
581	 0,209963511948629 
582	 0,211138791619078 
583	 0,211532376428056 
584	 0,212330675388066 
585	 0,213278560033678 
586	 0,21368279227367 
587	 0,213729065015036 
588	 0,213736942455429 
589	 0,214801158575112 
590	 0,216007913086892 
591	 0,216468881666835 
592	 0,216729319641542 
593	 0,216923329784608 
594	 0,217080899287066 
595	 0,217399952952503 
596	 0,217922614012833 
597	 0,21817864148299 
598	 0,218428278202654 
599	 0,219179988757495 
600	 0,218796163438038 
601	 0,217505157788115 
602	 0,21808727389242 
603	 0,218605550029452 
604	 0,217606030796782 
605	 0,217309849734403 
606	 0,217412422055522 
607	 0,216156857963116 
608	 0,215273332890272 
609	 0,215257656819966 
610	 0,214899279502854 
611	 0,214341792603353 
612	 0,213887598234184 
613	 0,213126222743953 
614	 0,212234470902893 
615	 0,212071995619253 
616	 0,212045432506057 
617	 0,211766027359892 
618	 0,211284506261137 
619	 0,211154205381253 
620	 0,212607685971152 
621	 0,212884101688401 
622	 0,211575202257244 
623	 0,211595044663458 
624	 0,212031917650419 
625	 0,21180518269421 
626	 0,212077585163317 
627	 0,212625506039942 
628	 0,212118340358132 
629	 0,211610892184142 
630	 0,21168549165328 
631	 0,212204428687041 
632	 0,213027877059515 
633	 0,21399461835488 
634	 0,21438887810663 
635	 0,214332105784111 
636	 0,215295406233525 
637	 0,216434763309462 
638	 0,217016077425141 
639	 0,217644927050161 
640	 0,218367598840374 
641	 0,218991207543797 
642	 0,219867296179911 
643	 0,221004857823927 
644	 0,221614693882232 
645	 0,221893813253681 
646	 0,22220561373868 
647	 0,221972828777862 
648	 0,221306151974409 
649	 0,221003061411268 
650	 0,220871887947478 
651	 0,220707342089633 
652	 0,219914110800923 
653	 0,218692348462234 
654	 0,217643430873651 
655	 0,216535069262789 
656	 0,215329804183029 
657	 0,214207129621156 
658	 0,212755807931104 
659	 0,210597407179496 
660	 0,209138587498247 
661	 0,208307007969929 
662	 0,206966965567056 
663	 0,205473285591951 
664	 0,204086828829745 
665	 0,203417976242173 
666	 0,203030778950933 
667	 0,202140108040377 
668	 0,201287927405687 
669	 0,200598556341269 
670	 0,199969391971006 
671	 0,199294483826986 
672	 0,198566416859659 
673	 0,198774753002767 
674	 0,199456157976265 
675	 0,199145032834382 
676	 0,198648533021513 
677	 0,198333835730485 
678	 0,198507853029741 
679	 0,199011228729383 
680	 0,199610983240833 
681	 0,19990689727486 
682	 0,200054328475897 
683	 0,200841184615561 
684	 0,201937788383704 
685	 0,203176869425038 
686	 0,204732400991442 
687	 0,206799155104623 
688	 0,209690361530806 
689	 0,21274063208703 
690	 0,215953581386492 
691	 0,220260683948764 
692	 0,225296252363313 
693	 0,230708216689109 
694	 0,236749407207459 
695	 0,243389666321607 
696	 0,250437663912756 
697	 0,258187702041292 
698	 0,266647063414086 
699	 0,275190608098664 
700	 0,283711038213501 
701	 0,292187908335477 
702	 0,300168396410354 
703	 0,307754957826938 
704	 0,315800798156327 
705	 0,323516393026067 
706	 0,330362112731465 
707	 0,336441907539517 
708	 0,341986258295324 
709	 0,347298011386102 
710	 0,352826353727773 
711	 0,358428999573425 
712	 0,362681878122067 
713	 0,366497018089636 
714	 0,370729355277666 
715	 0,374310704149418 
716	 0,377237813168875 
717	 0,379967772620569 
718	 0,382731878247179 
719	 0,385535798602266 
720	 0,387540107780165 
721	 0,389410316796039 
722	 0,392085249233984 
723	 0,393939505049635 
724	 0,394955085772959 
725	 0,396440789316724 
726	 0,397962641883693 
727	 0,399257669670512 
728	 0,400456985677963 
729	 0,401458977013428 
730	 0,402028790239682 
731	 0,402891862874431 
732	 0,404106814336856 
733	 0,404875159457528 
734	 0,40544190725497 
735	 0,406041412823348 
736	 0,406438748229795 
737	 0,40694113481259 
738	 0,408534514700158 
739	 0,409408801797419 
740	 0,409075574786403 
741	 0,409105244867147 
742	 0,409529625881603 
743	 0,41021477018444 
744	 0,410644276815928 
745	 0,41076510639683 
746	 0,410810230902664 
747	 0,411094750622435 
748	 0,411730142053538 
749	 0,41211292996827 
750	 0,412317016358685 
751	 0,412568659725176 
752	 0,412991803060606 
753	 0,413575986326672 
754	 0,414099527734294 
755	 0,414649961949682 
756	 0,415242526979606 
757	 0,415346010467489 
758	 0,415344584296715 
759	 0,416186940592797 
760	 0,416925496452227 
761	 0,417302959430126 
762	 0,417691011281882 
763	 0,418156862732452 
764	 0,418736408790076 
765	 0,41922442615557 
766	 0,419603796950369 
767	 0,419909047945741 
768	 0,420382669545179 
769	 0,421064614771526 
770	 0,421601068973686 
771	 0,421844221197443 
772	 0,421677733503738 
773	 0,421712673179515 
774	 0,422045197638057 
775	 0,422507508265578 
776	 0,422746330072853 
777	 0,422639307442783 
778	 0,422837241636233 
779	 0,423133106624059 
780	 0,423117282595417 
781	 0,423042909725282 
782	 0,422999095214124 
783	 0,423014722332969 
784	 0,423208849820275 
785	 0,423605840829835 
786	 0,423722377433836 
787	 0,423706163939726 
788	 0,423937873708226 
789	 0,424330571797736 
790	 0,424773340127703 
791	 0,424899830715591 
792	 0,425049230637984 
793	 0,425477428603521 
794	 0,425781348809653 
795	 0,426018236556065 
796	 0,42644648939152 
797	 0,426967153115345 
798	 0,427488698478204 
799	 0,427744764405042 
800	 0,427988697261532 
801	 0,428442638908277 
802	 0,428565975305931 
803	 0,428489109702037 
804	 0,428782341582746 
805	 0,42911710207883 
806	 0,429434127481916 
807	 0,430022329048415 
808	 0,430708192269594 
809	 0,431267336590328 
810	 0,43135616081653 
811	 0,431170165280603 
812	 0,431477779774204 
813	 0,431610010091547 
814	 0,43143577832044 
815	 0,431934902668863 
816	 0,432451141731176 
817	 0,432148043277861 
818	 0,432440342944416 
819	 0,433234412833563 
820	 0,43322487842714 
821	 0,433399979987474 
822	 0,434093024461881 
823	 0,434306229801431 
824	 0,434246022495355 
825	 0,434307410952574 
826	 0,434622993020805 
827	 0,435149025757007 
828	 0,435614041400023 
829	 0,436005920779703 
830	 0,436303488702771 
831	 0,436451263850168 
832	 0,436712619086645 
833	 0,437434660894113 
834	 0,438389121628625 
835	 0,439280156846589 
836	 0,439422370404318 
837	 0,439507118406432 
838	 0,439871381332279 
839	 0,439974854702308 
840	 0,439969074140106 
841	 0,440139290839205 
842	 0,440425949557228 
843	 0,440662265484314 
844	 0,44027688048209 
845	 0,44026284348865 
846	 0,441009633076899 
847	 0,441068332963041 
848	 0,440817956275769 
849	 0,441019439739722 
850	 0,441434407586255 
851	 0,441805413455977 
852	 0,441506904872124 
853	 0,441033832701239 
854	 0,440690678509115 
855	 0,440389474655047 
856	 0,440507011825606 
857	 0,441528381130479 
858	 0,441570705132104 
859	 0,440728013182454 
860	 0,440914799321693 
861	 0,441160125879272 
862	 0,441071405305258 
863	 0,441410934960221 
864	 0,442042118758822 
865	 0,442685190801571 
866	 0,443312031216777 
867	 0,443845444919127 
868	 0,444176481752133 
869	 0,44423645028978 
870	 0,444149077746438 
871	 0,444849811878789 
872	 0,445584180688309 
873	 0,445387457482241 
874	 0,445652936260993 
875	 0,44647246901853 
876	 0,447174553207565 
877	 0,447980000837627 
878	 0,448853899464818 
879	 0,44922740868505 
880	 0,449544175256162 
881	 0,450285668155356 
882	 0,450453577436443 
883	 0,450348376350339 
884	 0,45131150968423 
885	 0,452077179961235 
886	 0,452262532679365 
887	 0,452430686859795 
888	 0,452705245950723 
889	 0,453167408687317 
890	 0,453771876048429 
891	 0,454123938143302 
892	 0,453349973630982 
893	 0,45310404322139 
894	 0,453699911357394 
895	 0,453851235920167 
896	 0,45374485286733 
897	 0,45358145491809 
898	 0,453520482501152 
899	 0,453568726504842 
900	 0,453658097495891 
901	 0,454082400527849 
902	 0,454562742622444 
903	 0,453752522745722 
904	 0,453170932395299 
905	 0,453659782900065 
906	 0,453870046505904 
907	 0,453706647774464 
908	 0,453286699225236 
909	 0,452759000620961 
910	 0,452386802859185 
911	 0,452709793238686 
912	 0,453441397189868 
913	 0,454254856114318 
914	 0,454229645908215 
915	 0,454017699454649 
916	 0,454412542243113 
917	 0,454682970616673 
918	 0,454899919197474 
919	 0,455690400952074 
920	 0,455903252575749 
921	 0,455378581361828 
922	 0,455290240449579 
923	 0,455991019436263 
924	 0,457548030658235 
925	 0,458146862613726 
926	 0,458007102233387 
927	 0,458110694298746 
928	 0,458192506748951 
929	 0,45823475453353 
930	 0,458213258527252 
931	 0,458640739638487 
932	 0,459647850452525 
933	 0,459913885165633 
934	 0,460028913772408 
935	 0,460909290856549 
936	 0,461464027216222 
937	 0,461415994431154 
938	 0,460578861059375 
939	 0,460448409809601 
940	 0,461362186384801 
941	 0,461653677057181 
942	 0,461484903201356 
943	 0,461162292755008 
944	 0,461469957943615 
945	 0,461985684026771 
946	 0,461694211591437 
947	 0,461063050656793 
948	 0,460210104532331 
949	 0,458962039149502 
950	 0,458147660934707 
951	 0,45821975052321 
952	 0,458707334176035 
953	 0,458788609206084 
954	 0,457635685764055 
955	 0,457004775187561 
956	 0,457104390660019 
957	 0,4576414097342 
958	 0,456457493034369 
959	 0,45380877580059 
960	 0,454476961228665 
961	 0,456257830772963 
962	 0,457112477524426 
963	 0,455969538690958 
964	 0,454649260292488 
965	 0,456108942509649 
966	 0,456412996651768 
967	 0,455206913235795 
968	 0,454493047638825 
969	 0,454337819359329 
970	 0,454769834540993 
971	 0,455519326035983 
972	 0,455397996968967 
973	 0,45372797297489 
974	 0,455040330526399 
975	 0,457313391878814 
976	 0,455573558064862 
977	 0,455196118530712 
978	 0,456771557699279 
979	 0,456919846339668 
980	 0,457376396174626 
981	 0,458827978210967 
982	 0,460221639773636 
983	 0,460902121067868 
984	 0,46047094187278 
985	 0,460894836116361 
986	 0,462204177395804 
987	 0,463739986129072 
988	 0,463851496265178 
989	 0,462890604138938 
990	 0,46402071468089 
991	 0,465501278748187 
992	 0,466174839057082 
993	 0,46489481423241 
994	 0,464104977628133 
995	 0,466198732022764 
996	 0,46785540363996 
997	 0,468316837144216 
998	 0,467354018991525 
999	 0,4675945946752 
1000	 0,469206014763746 
1001	 0,469539028905329 
1002	 0,470700087321832 
1003	 0,473073104975809 
1004	 0,472488352200435 
1005	 0,471716876453226 
1006	 0,473515709002944 
1007	 0,474009167914052 
1008	 0,473585540409451 
1009	 0,474088536708294 
1010	 0,474428720239385 
1011	 0,474171754678025 
1012	 0,472196983787728 
1013	 0,473979851437139 
1014	 0,479809623325976 
1015	 0,477777698792551 
1016	 0,475715887384876 
1017	 0,479944222921107 
1018	 0,48033160366129 
1019	 0,478563580329992 
1020	 0,479229214596417 
1021	 0,478734393880608 
1022	 0,478279519791492 
1023	 0,483842845648259 
1024	 0,48484367067745 
1025	 0,480157066484507 
1026	 0,482434233791354 
1027	 0,486181645482524 
1028	 0,487284242098994 
1029	 0,485386529534685 
1030	 0,48356305268649 
1031	 0,485227287040363 
1032	 0,486186819323956 
1033	 0,487007031660907 
1034	 0,490514699412162 
1035	 0,491534133279633 
1036	 0,489325775058808 
1037	 0,485923791275011 
1038	 0,489334379605938 
1039	 0,498723748150511 
1040	 0,489652697070884 
1041	 0,480059532598096 
1042	 0,484551306509837 
1043	 0,483961781491928 
1044	 0,482003224840634 
1045	 0,48684356484992 
1046	 0,491937200854662 
1047	 0,496730380861057 
1048	 0,50317886481818 
1049	 0,504813317456543 
1050	 0,500927345008588 
1051	 0,495591320638458 
1052	 0,496970960540713 
1053	 0,505574725761838 
1054	 0,499342220879108 
1055	 0,493374773421733 
1056	 0,500511562435927 
1057	 0,504354185293272 
1058	 0,506252835061828 
1059	 0,510861374166937 
1060	 0,518151132406292 
1061	 0,520643852439462 
1062	 0,501709760340241 
1063	 0,493862600759359 
1064	 0,501405527243965 
1065	 0,49924603827989 
1066	 0,500613158593092 
1067	 0,506501401476243 
1068	 0,489134418435988 
1069	 0,488508477566223 
1070	 0,5259235673088 
1071	 0,514300796827319 
1072	 0,490505441108649 
1073	 0,504942441465058 
1074	 0,51040558620529 
1075	 0,502998641552625 
