Wavelength	SCORFF200355.asd
325	 0,237098349920019 
326	 0,294659194876487 
327	 0,231961213323767 
328	 8,49592149334783E-02 
329	 0,171694763712697 
330	 0,246510898925658 
331	 0,137361629411839 
332	 0,100135728245001 
333	 0,120316362671563 
334	 5,08246866748484E-02 
335	 2,90783702959826E-02 
336	 7,47336426981236E-02 
337	 3,25508502586613E-02 
338	-2,60880753355975E-02 
339	 1,41368574877692E-03 
340	 0,062083280021609 
341	 0,114799680881244 
342	 0,127066265732513 
343	 0,148807528123146 
344	 0,178303012389113 
345	 0,177942178415698 
346	 0,144688597842321 
347	 8,04365276192873E-02 
348	 0,085273780289314 
349	 0,13020347166341 
350	 0,111158470759037 
351	 9,33742525104366E-02 
352	 9,64987899493757E-02 
353	 6,25992001487665E-02 
354	 1,05316166617048E-02 
355	-3,50622065083608E-02 
356	 8,2336965772363E-03 
357	 0,098871396676825 
358	 0,10161269868783 
359	 0,079337168153484 
360	 5,86558461820458E-02 
361	 3,94934012057056E-02 
362	 3,83164396655879E-02 
363	 7,44709144409235E-02 
364	 7,81882611795109E-02 
365	 5,33636469183218E-02 
366	 6,89488735840642E-02 
367	 8,61815340178856E-02 
368	 8,16144280137277E-02 
369	 7,09964105223554E-02 
370	 5,32627820393906E-02 
371	 2,42665195296655E-02 
372	 9,25788709630255E-03 
373	 1,56428813840241E-02 
374	 4,42243933967652E-02 
375	 0,063858275544724 
376	 5,53180357887337E-02 
377	 4,36179715271759E-02 
378	 3,67621616478719E-02 
379	 4,12372087470268E-02 
380	 3,76745670770048E-02 
381	 2,52785726619091E-02 
382	 3,70364844955208E-02 
383	 4,79580101389137E-02 
384	 3,59996890136524E-02 
385	 2,96651592854401E-02 
386	 0,032211412704481 
387	 3,82111497932525E-02 
388	 4,20069509526139E-02 
389	 3,96519000434414E-02 
390	 2,49329320596518E-02 
391	 1,42374823012112E-02 
392	 2,81893090387196E-02 
393	 2,96917681569014E-02 
394	 1,94204035726328E-02 
395	 2,54128750313915E-02 
396	 2,87022267153179E-02 
397	 2,16767290533793E-02 
398	 2,00755697937453E-02 
399	 2,22295008631598E-02 
400	 2,30381768960096E-02 
401	 2,31675620823383E-02 
402	 2,20180613497978E-02 
403	 1,55703430998381E-02 
404	 1,78785256050786E-02 
405	 0,035032040838899 
406	 3,15466333557708E-02 
407	 1,81535918851849E-02 
408	 2,68487859374349E-02 
409	 3,17864758569745E-02 
410	 2,78657066525132E-02 
411	 2,90185272204159E-02 
412	 2,68802511671338E-02 
413	 1,42981575713281E-02 
414	 1,51178255142958E-02 
415	 2,52774661155588E-02 
416	 2,37244888461419E-02 
417	 2,33922330746965E-02 
418	 2,75108477873577E-02 
419	 2,34816814035198E-02 
420	 1,72514120837711E-02 
421	 1,75697476051838E-02 
422	 2,01038520113925E-02 
423	 2,29655268747689E-02 
424	 2,42727163553061E-02 
425	 2,29685457435573E-02 
426	 1,89033513897631E-02 
427	 1,62562470948855E-02 
428	 1,58268059747655E-02 
429	 1,76340218552977E-02 
430	 2,10487867132559E-02 
431	 2,43673391798184E-02 
432	 2,22301223866563E-02 
433	 1,93647956403936E-02 
434	 2,01260794239108E-02 
435	 2,35385371435278E-02 
436	 2,64785221269904E-02 
437	 0,021638956266715 
438	 1,69113104166973E-02 
439	 0,015776382956558 
440	 1,72411553109845E-02 
441	 0,01911699882618 
442	 1,88116436042415E-02 
443	 1,91865138547603E-02 
444	 2,08170876022729E-02 
445	 2,41525342238032E-02 
446	 2,34394583911312E-02 
447	 1,63801673264465E-02 
448	 1,57199000316171E-02 
449	 1,95024445079701E-02 
450	 2,07048637245425E-02 
451	 2,19624124131187E-02 
452	 2,30197394395446E-02 
453	 2,03614237769647E-02 
454	 1,67172506758362E-02 
455	 1,48685734609229E-02 
456	 1,64440157120322E-02 
457	 0,019422309216832 
458	 1,72118326683187E-02 
459	 1,73844634746318E-02 
460	 2,18345662080357E-02 
461	 2,13399455218827E-02 
462	 0,01865875545121 
463	 1,86129968710818E-02 
464	 0,016994928870608 
465	 1,39650120120154E-02 
466	 1,29034498288028E-02 
467	 1,44499036786502E-02 
468	 1,85116002783608E-02 
469	 2,12640431298201E-02 
470	 2,13743192276702E-02 
471	 1,70461451818927E-02 
472	 0,015672270532526 
473	 1,87859063793672E-02 
474	 0,020754242128669 
475	 2,03258420454186E-02 
476	 0,016859521996512 
477	 1,59957361132617E-02 
478	 1,75696491704673E-02 
479	 1,77083025347316E-02 
480	 1,71712006831322E-02 
481	 1,64602528734509E-02 
482	 1,69871762818036E-02 
483	 1,80411955431651E-02 
484	 0,018342393831504 
485	 1,93741279231283E-02 
486	 2,05400077578918E-02 
487	 1,80624160208862E-02 
488	 1,63922733182367E-02 
489	 1,85889253561065E-02 
490	 1,88220394582288E-02 
491	 1,74389955881455E-02 
492	 0,017411996442891 
493	 1,74444550618878E-02 
494	 1,72433779076708E-02 
495	 0,01736970327219 
496	 1,74691100863215E-02 
497	 1,71220347165388E-02 
498	 1,72882875489696E-02 
499	 0,018077120389848 
500	 1,94499576988068E-02 
501	 1,93782955080147E-02 
502	 1,71274197474678E-02 
503	 0,01658000067261 
504	 1,77284930260921E-02 
505	 1,98281433142205E-02 
506	 1,99798290426453E-02 
507	 1,77941512595341E-02 
508	 1,57503464584369E-02 
509	 0,015314546423153 
510	 1,74797110959746E-02 
511	 1,86172786196637E-02 
512	 1,84936445378623E-02 
513	 1,85958438320806E-02 
514	 1,83706209733394E-02 
515	 1,77198878750757E-02 
516	 1,72333728698234E-02 
517	 1,70463088333062E-02 
518	 1,72456139451382E-02 
519	 1,74285463090561E-02 
520	 1,75423461332141E-02 
521	 1,78880337389932E-02 
522	 1,81766142706249E-02 
523	 1,82062113252655E-02 
524	 1,80918416907927E-02 
525	 1,81810239596749E-02 
526	 1,94846025243437E-02 
527	 1,92269789591575E-02 
528	 1,71240347423011E-02 
529	 1,72908419892129E-02 
530	 1,82392322165663E-02 
531	 1,79320846765585E-02 
532	 1,68876100500733E-02 
533	 1,59247815352497E-02 
534	 1,72636863272707E-02 
535	 1,85426009001353E-02 
536	 1,84668797939964E-02 
537	 1,89261854216373E-02 
538	 1,93710390736378E-02 
539	 1,82584343343075E-02 
540	 1,78672461483604E-02 
541	 1,85867028209487E-02 
542	 0,018607284167185 
543	 1,83668773931273E-02 
544	 1,83701837261435E-02 
545	 1,82585902450294E-02 
546	 1,81345105304359E-02 
547	 1,85964581948503E-02 
548	 1,83348118234289E-02 
549	 1,70226774837279E-02 
550	 1,71932204764053E-02 
551	 1,80390883439194E-02 
552	 1,78556107546097E-02 
553	 1,79104873743107E-02 
554	 1,83484491164953E-02 
555	 1,84201898036377E-02 
556	 1,81987066716079E-02 
557	 1,78232767591417E-02 
558	 1,81334585303792E-02 
559	 1,87319511090801E-02 
560	 0,018171650544635 
561	 1,79500169214878E-02 
562	 1,84393283519086E-02 
563	 1,80170290366538E-02 
564	 1,72381002053985E-02 
565	 0,017002900198929 
566	 1,75985662059538E-02 
567	 1,86496331684013E-02 
568	 1,85248107268613E-02 
569	 1,85153237465587E-02 
570	 1,93529873901674E-02 
571	 1,87507030932474E-02 
572	 1,75339084372994E-02 
573	 1,82142728704329E-02 
574	 1,91063007309735E-02 
575	 1,94942881221723E-02 
576	 1,88864327703903E-02 
577	 1,81994643156391E-02 
578	 1,84877706810394E-02 
579	 1,90749275886215E-02 
580	 1,97039972482859E-02 
581	 2,02077329948895E-02 
582	 2,02267896736569E-02 
583	 1,96699077660511E-02 
584	 1,95505184979533E-02 
585	 1,98293100392174E-02 
586	 2,02272242622544E-02 
587	 2,00407712278553E-02 
588	 1,93548939656963E-02 
589	 1,95544082995245E-02 
590	 2,03133085830394E-02 
591	 2,12022402578199E-02 
592	 2,12513489247245E-02 
593	 2,06730871780619E-02 
594	 2,06059951488555E-02 
595	 2,06973295559575E-02 
596	 0,020747880601283 
597	 2,03612751282382E-02 
598	 1,99622606502338E-02 
599	 2,02423066582981E-02 
600	 2,05216533389261E-02 
601	 2,05038525921149E-02 
602	 1,97952041368524E-02 
603	 1,93620425207174E-02 
604	 1,99305501361581E-02 
605	 2,06802583026586E-02 
606	 0,021071816865889 
607	 2,01676774342077E-02 
608	 0,019319069921856 
609	 0,019074355014143 
610	 1,91124819622996E-02 
611	 0,019225318354396 
612	 1,91887503864451E-02 
613	 1,90108780250644E-02 
614	 1,89013670584668E-02 
615	 1,96470479836673E-02 
616	 2,00076870557888E-02 
617	 1,92789435797755E-02 
618	 1,87349751168985E-02 
619	 1,87062625147018E-02 
620	 1,95254604154677E-02 
621	 1,97334820154885E-02 
622	 1,90665460154669E-02 
623	 1,89168064131327E-02 
624	 1,90792796303197E-02 
625	 1,92420356816533E-02 
626	 1,90506498978538E-02 
627	 1,86806903629276E-02 
628	 1,88840736924832E-02 
629	 1,91876513743026E-02 
630	 0,019335214582825 
631	 1,93502733732363E-02 
632	 1,93468523154582E-02 
633	 1,95237032915985E-02 
634	 1,94276205079235E-02 
635	 1,91216050949008E-02 
636	 1,94144156227367E-02 
637	 0,019783979214361 
638	 0,019802515724756 
639	 2,01908631137665E-02 
640	 2,07790060169603E-02 
641	 2,08823427814184E-02 
642	 2,06417879546206E-02 
643	 2,02362112170134E-02 
644	 0,020367771742763 
645	 2,08491864980897E-02 
646	 2,13467325057232E-02 
647	 2,13918010031817E-02 
648	 2,09231681665563E-02 
649	 2,01202646221485E-02 
650	 1,98939326268884E-02 
651	 0,020684659903267 
652	 2,04766413433621E-02 
653	 1,96970267275988E-02 
654	 1,98722552848856E-02 
655	 1,99786739572326E-02 
656	 1,97002845841746E-02 
657	 1,91769514254859E-02 
658	 1,86296074366712E-02 
659	 1,82848616728083E-02 
660	 1,81951184084436E-02 
661	 0,018267551842837 
662	 1,82685402536401E-02 
663	 1,79390868546536E-02 
664	 1,73112622163004E-02 
665	 0,017688900430215 
666	 1,83054609128863E-02 
667	 1,77261157099183E-02 
668	 1,75384384799797E-02 
669	 1,79027181621533E-02 
670	 1,76292974869113E-02 
671	 1,71042341356579E-02 
672	 1,67399476020979E-02 
673	 1,73936228893505E-02 
674	 1,84881107675801E-02 
675	 1,83434655073168E-02 
676	 1,78982447227931E-02 
677	 1,75692311674366E-02 
678	 0,01765630491218 
679	 1,80370418397203E-02 
680	 1,85181004308952E-02 
681	 0,018585419655086 
682	 1,83222997862554E-02 
683	 1,84361389364003E-02 
684	 1,86054832215281E-02 
685	 1,86718464263167E-02 
686	 1,89716679029544E-02 
687	 1,92623493965285E-02 
688	 1,90159951927392E-02 
689	 1,90656747626729E-02 
690	 1,96286753539172E-02 
691	 2,03871039792843E-02 
692	 2,11548728194497E-02 
693	 2,18082864029169E-02 
694	 2,28976718321218E-02 
695	 2,43609437357306E-02 
696	 2,56923889864965E-02 
697	 2,75070090988459E-02 
698	 2,99212489986848E-02 
699	 3,19658539632669E-02 
700	 3,41380069907292E-02 
701	 3,71809096953055E-02 
702	 4,04974182291008E-02 
703	 4,39385526492689E-02 
704	 4,76080307048056E-02 
705	 5,12321747396323E-02 
706	 5,46994213583703E-02 
707	 5,86480191627519E-02 
708	 6,29551524844266E-02 
709	 0,067242764496462 
710	 7,12723856853393E-02 
711	 7,50100182435352E-02 
712	 7,87913402553764E-02 
713	 8,24678166124972E-02 
714	 8,58943403485869E-02 
715	 8,92270868377806E-02 
716	 0,092468765284716 
717	 0,095540225119788 
718	 9,85797058206376E-02 
719	 0,101576194554075 
720	 0,104060923911684 
721	 0,106470530769151 
722	 0,109416282091618 
723	 0,111389476561325 
724	 0,112534837122396 
725	 0,114628849071195 
726	 0,116599002173488 
727	 0,117847343987548 
728	 0,11921707504313 
729	 0,120702683180333 
730	 0,122079592847752 
731	 0,123530370789994 
732	 0,12496694539362 
733	 0,125875956179714 
734	 0,126517277947102 
735	 0,127150038367716 
736	 0,127826140158164 
737	 0,128639948226076 
738	 0,129846097203576 
739	 0,130665197817814 
740	 0,130914069002148 
741	 0,131462443006474 
742	 0,132191309903518 
743	 0,132873833866178 
744	 0,133345859212532 
745	 0,133678962936343 
746	 0,134264546176417 
747	 0,134716448388639 
748	 0,134853486768665 
749	 0,134917350158211 
750	 0,135126733427406 
751	 0,135759885966926 
752	 0,136367876546259 
753	 0,136815786084067 
754	 0,137120461324284 
755	 0,137566393370635 
756	 0,138303425841835 
757	 0,138645620763714 
758	 0,138792176285892 
759	 0,139410429796548 
760	 0,139675958575168 
761	 0,139481493657903 
762	 0,139563108362602 
763	 0,140080902423289 
764	 0,141073509256042 
765	 0,14137742749145 
766	 0,141093982976528 
767	 0,141037512926013 
768	 0,141447086592183 
769	 0,142240764585722 
770	 0,142151305241948 
771	 0,141810565582184 
772	 0,142086576097267 
773	 0,142799924748377 
774	 0,143573522664677 
775	 0,143397592037142 
776	 0,143180042168745 
777	 0,143362587469754 
778	 0,143425341639404 
779	 0,14342519597478 
780	 0,143517654578502 
781	 0,143741847713963 
782	 0,144101166950174 
783	 0,144614258823766 
784	 0,144875656097762 
785	 0,144683071543867 
786	 0,144743263542853 
787	 0,145047414793398 
788	 0,145397393564369 
789	 0,145615384992188 
790	 0,14565407962079 
791	 0,14562902891288 
792	 0,145614390596338 
793	 0,145696068631202 
794	 0,14613146258733 
795	 0,14671599562217 
796	 0,146976267002763 
797	 0,146867854055291 
798	 0,146587164952982 
799	 0,147196824197062 
800	 0,147763223587359 
801	 0,147422580907176 
802	 0,147406157211383 
803	 0,147720270154417 
804	 0,147741661955234 
805	 0,147941876424368 
806	 0,148404413750084 
807	 0,148673317642083 
808	 0,148801225814388 
809	 0,148881922291986 
810	 0,148852863980999 
811	 0,148904576218787 
812	 0,149602461593747 
813	 0,150152000549056 
814	 0,150236974897 
815	 0,150253623945255 
816	 0,150361130504387 
817	 0,150697340324492 
818	 0,150990272364457 
819	 0,151165469758242 
820	 0,151182647688439 
821	 0,151339518995223 
822	 0,151744736101661 
823	 0,152098469604129 
824	 0,152213466270654 
825	 0,151912190922654 
826	 0,152222118609195 
827	 0,152985056815564 
828	 0,152884794266162 
829	 0,152618905607319 
830	 0,152574746153658 
831	 0,152736305696846 
832	 0,153050404599843 
833	 0,153431571102922 
834	 0,154202230560004 
835	 0,155078554606393 
836	 0,154976455842 
837	 0,154662807911163 
838	 0,154621049253441 
839	 0,154996223891091 
840	 0,155446236127525 
841	 0,155467569711776 
842	 0,155401363669064 
843	 0,155354433507735 
844	 0,155318431546764 
845	 0,155622702855527 
846	 0,156283783211994 
847	 0,156068494957591 
848	 0,155630519445561 
849	 0,156073317053218 
850	 0,156271950969795 
851	 0,156048954907864 
852	 0,155786338144144 
853	 0,155467239901959 
854	 0,155198796157187 
855	 0,155640394951819 
856	 0,156222727918334 
857	 0,156089622793526 
858	 0,156132637282785 
859	 0,156371412999591 
860	 0,156159180584352 
861	 0,155924555928489 
862	 0,155888720572792 
863	 0,155885772272218 
864	 0,15598134493187 
865	 0,156270989191106 
866	 0,156507267640341 
867	 0,156764325385759 
868	 0,157589976798495 
869	 0,157766718388407 
870	 0,157007678012345 
871	 0,157401548428941 
872	 0,158331029016263 
873	 0,158809486453444 
874	 0,158908241562675 
875	 0,158860560526747 
876	 0,159326948193917 
877	 0,159898646637986 
878	 0,160370513035269 
879	 0,160646124427547 
880	 0,160863823061461 
881	 0,161166644143618 
882	 0,161138117077463 
883	 0,160944884970904 
884	 0,161170208958883 
885	 0,161704662421744 
886	 0,162458077002735 
887	 0,163260212800691 
888	 0,163481945632236 
889	 0,162653790611442 
890	 0,162141902740961 
891	 0,162189863035013 
892	 0,16268554217036 
893	 0,163363647010853 
894	 0,163963427607301 
895	 0,164082654724696 
896	 0,16368937315412 
897	 0,162883331657003 
898	 0,162587897084983 
899	 0,162751613035 
900	 0,16298434002986 
901	 0,163170211435396 
902	 0,163299580836894 
903	 0,163609170327167 
904	 0,163794107041947 
905	 0,163690471946875 
906	 0,163554813927553 
907	 0,163612496055729 
908	 0,164117430208787 
909	 0,164009189908468 
910	 0,163493800374323 
911	 0,164089389958616 
912	 0,164757057233056 
913	 0,164847190336337 
914	 0,163568755384502 
915	 0,162746294916883 
916	 0,164313012055565 
917	 0,16507188849933 
918	 0,16475554806965 
919	 0,164417392523896 
920	 0,164250552684867 
921	 0,164267497065333 
922	 0,163776570024031 
923	 0,163587359189694 
924	 0,164371181422137 
925	 0,165772221268601 
926	 0,166596741898203 
927	 0,164895031592118 
928	 0,163545427179688 
929	 0,163391237899781 
930	 0,164012259719791 
931	 0,164767836996484 
932	 0,165239907435569 
933	 0,165776912002974 
934	 0,165884844460354 
935	 0,164961418734349 
936	 0,164565667197613 
937	 0,164855532998725 
938	 0,165188776730873 
939	 0,165473076616884 
940	 0,165524470457782 
941	 0,164971190575533 
942	 0,164030352153693 
943	 0,163049350120113 
944	 0,163267059779356 
945	 0,163962105086044 
946	 0,163426216873079 
947	 0,162869847929361 
948	 0,162279487253346 
949	 0,160242410455437 
950	 0,158722101703813 
951	 0,158831407647714 
952	 0,159865207258052 
953	 0,159794387740793 
954	 0,156544088742018 
955	 0,155622997808127 
956	 0,156712924439271 
957	 0,155800764939361 
958	 0,154676112829186 
959	 0,154016811665586 
960	 0,154062717890322 
961	 0,155278207235038 
962	 0,157431275696049 
963	 0,155908910147913 
964	 0,152915299087367 
965	 0,152728806358567 
966	 0,15398252484475 
967	 0,155484733437082 
968	 0,154699075769576 
969	 0,153030073599158 
970	 0,151590233104493 
971	 0,152731515199942 
972	 0,15370834966464 
973	 0,152223364804393 
974	 0,153161420380305 
975	 0,154910405908253 
976	 0,153174895823391 
977	 0,152424169343742 
978	 0,153403603562855 
979	 0,154254335388465 
980	 0,154582523317676 
981	 0,154531495423317 
982	 0,156604447047377 
983	 0,158102740113668 
984	 0,156426417607762 
985	 0,155827689063504 
986	 0,157166887457791 
987	 0,16067441757499 
988	 0,159815884117539 
989	 0,15519659237717 
990	 0,156286571920486 
991	 0,158759253841219 
992	 0,16018775337454 
993	 0,160569320023385 
994	 0,160744596015826 
995	 0,161468210950326 
996	 0,159867302168929 
997	 0,158123710432271 
998	 0,161378184589733 
999	 0,163739257722212 
1000	 0,163749724603082 
1001	 0,162592933437497 
1002	 0,162422537480122 
1003	 0,163846799511915 
1004	 0,163131124739528 
1005	 0,161982587118558 
1006	 0,162337925447854 
1007	 0,163221647403932 
1008	 0,16479149410984 
1009	 0,167594220753766 
1010	 0,168441844258538 
1011	 0,167086999181578 
1012	 0,165248471462625 
1013	 0,1671129955908 
1014	 0,172580845279083 
1015	 0,170895140758279 
1016	 0,167257208409105 
1017	 0,166931911283951 
1018	 0,171104568019301 
1019	 0,174626332548821 
1020	 0,16990145594263 
1021	 0,169843368862615 
1022	 0,174436905290593 
1023	 0,175057003316489 
1024	 0,172724433123957 
1025	 0,169368508137224 
1026	 0,172838653043285 
1027	 0,175952353541558 
1028	 0,17448262197882 
1029	 0,175320145235816 
1030	 0,177321759316684 
1031	 0,178343710641794 
1032	 0,178938551279937 
1033	 0,179031521701099 
1034	 0,178134817317261 
1035	 0,182741993719577 
1036	 0,190394215192108 
1037	 0,185425081085781 
1038	 0,182808484678055 
1039	 0,186807102255078 
1040	 0,181544570858885 
1041	 0,173764935860439 
1042	 0,170786091567669 
1043	 0,177388385897626 
1044	 0,184430077149025 
1045	 0,179284920853208 
1046	 0,185280838173911 
1047	 0,199013567013833 
1048	 0,199810735740938 
1049	 0,19680063619208 
1050	 0,192248462454904 
1051	 0,184050834647466 
1052	 0,184893797909085 
1053	 0,197206472133868 
1054	 0,197697855196619 
1055	 0,193037883835797 
1056	 0,190736177801139 
1057	 0,189998001183738 
1058	 0,190561774427336 
1059	 0,191828154154827 
1060	 0,192082414212776 
1061	 0,189917542587356 
1062	 0,182926228139144 
1063	 0,181773406658106 
1064	 0,187832076005744 
1065	 0,193484322849234 
1066	 0,194304648393736 
1067	 0,188214315859582 
1068	 0,174405459848597 
1069	 0,175199610701499 
1070	 0,201268704595174 
1071	 0,199812905863502 
1072	 0,191311411579484 
1073	 0,204070340872757 
1074	 0,21004084202746 
1075	 0,205150484522341 
