Wavelength	SCORFF200765.asd
325	 7,25877734477045E-02 
326	 3,83405763952425E-02 
327	 1,32782949925149E-02 
328	 1,59431245806117E-02 
329	 0,108206237932956 
330	 0,233164276111015 
331	 0,357432746554085 
332	 0,245593496238322 
333	 4,24785954036446E-02 
334	-2,11285283945108E-03 
335	 4,32331912889308E-02 
336	 0,113283169977159 
337	 0,124146306137683 
338	 8,42460619750066E-02 
339	 7,51715483829976E-03 
340	 0,036655364581112 
341	 0,108279376245088 
342	 0,07463092706596 
343	 7,62127076357199E-02 
344	 0,121133583975258 
345	 6,27895621366279E-02 
346	 1,16836279077009E-02 
347	 8,00452222138791E-02 
348	 0,113649528578833 
349	 0,10222324405104 
350	 8,98084726203328E-02 
351	 7,61701455489112E-02 
352	 6,50187511040237E-02 
353	 4,69169924791144E-02 
354	 2,98943011716337E-02 
355	 2,50503688489248E-02 
356	 2,82013942211312E-02 
357	 3,83088421647251E-02 
358	 6,08915310855686E-02 
359	 6,71486454957558E-02 
360	 4,59525253076365E-02 
361	 0,012817411139693 
362	-2,24352598098917E-03 
363	 0,037231213218651 
364	 7,05768069635943E-02 
365	 8,43164262965081E-02 
366	 7,56630937670623E-02 
367	 6,14115045663774E-02 
368	 0,051495556041877 
369	 2,90518898142217E-02 
370	 0,011929817309009 
371	 4,06969859589982E-02 
372	 4,08930076907026E-02 
373	 7,96597160288233E-03 
374	 1,71019030977327E-02 
375	 3,08209463680965E-02 
376	 2,27174259578677E-02 
377	 2,70543642549897E-02 
378	 4,03567163561412E-02 
379	 4,63410983977461E-02 
380	 4,79003711877126E-02 
381	 4,64810242019168E-02 
382	 4,83810877045565E-02 
383	 4,83258146735503E-02 
384	 4,16148041578573E-02 
385	 3,29821846788459E-02 
386	 2,93405587350134E-02 
387	 4,66893525401718E-02 
388	 5,72777348200649E-02 
389	 4,94019698599533E-02 
390	 2,76070654859064E-02 
391	 1,14132376543268E-02 
392	 2,48238941141587E-02 
393	 2,28880451418648E-02 
394	 8,85604638058109E-03 
395	 2,47161948555827E-02 
396	 3,51245265587229E-02 
397	 2,61648399192018E-02 
398	 2,89332965098655E-02 
399	 3,67431994659968E-02 
400	 3,55061116833475E-02 
401	 2,65313939506983E-02 
402	 1,50065341656451E-02 
403	 1,49857951772844E-02 
404	 2,42784401388511E-02 
405	 3,81284204982766E-02 
406	 3,17272542033219E-02 
407	 1,74227593177627E-02 
408	 2,69521652197522E-02 
409	 3,75257547341508E-02 
410	 4,14738219224959E-02 
411	 3,83405210563574E-02 
412	 3,07768340088216E-02 
413	 2,18349865382481E-02 
414	 2,25772296835854E-02 
415	 2,95680598405111E-02 
416	 0,029608017126369 
417	 2,79905227153613E-02 
418	 2,68651797454845E-02 
419	 2,60176082442204E-02 
420	 2,61628982798984E-02 
421	 2,81751137214985E-02 
422	 2,79060818362152E-02 
423	 2,61196597439412E-02 
424	 2,85155120885299E-02 
425	 3,09972967741075E-02 
426	 3,10703382758564E-02 
427	 0,029752503584586 
428	 2,75742551900113E-02 
429	 2,48857838716792E-02 
430	 2,43518754855087E-02 
431	 2,62263498913899E-02 
432	 2,78689123741278E-02 
433	 2,84275942740584E-02 
434	 2,74867164101193E-02 
435	 2,90287965027579E-02 
436	 3,17525197800985E-02 
437	 3,08598052436456E-02 
438	 2,84418609054589E-02 
439	 2,57368342890328E-02 
440	 2,44578488071942E-02 
441	 2,48714630971346E-02 
442	 2,70166683806646E-02 
443	 2,76027947828896E-02 
444	 2,68991250122707E-02 
445	 2,90226882141141E-02 
446	 3,05854847931302E-02 
447	 2,95487480379964E-02 
448	 2,74481396420782E-02 
449	 2,58127447352596E-02 
450	 2,68538579282186E-02 
451	 2,89607737155611E-02 
452	 0,031161719401524 
453	 3,20776003174686E-02 
454	 3,16264459411199E-02 
455	 2,98821751104233E-02 
456	 2,76410528306313E-02 
457	 2,58509946638354E-02 
458	 2,62361653513579E-02 
459	 0,027018233343965 
460	 2,72635973376393E-02 
461	 2,61260976397798E-02 
462	 2,62599448019729E-02 
463	 3,12706570728236E-02 
464	 3,07469437850089E-02 
465	 2,51485491467961E-02 
466	 2,53310718961792E-02 
467	 2,81350316446805E-02 
468	 3,09260537551346E-02 
469	 3,08165682523159E-02 
470	 2,85759806953601E-02 
471	 2,63223723419961E-02 
472	 2,64760725726065E-02 
473	 2,91648225568711E-02 
474	 3,03578989109163E-02 
475	 3,09201101237049E-02 
476	 3,17941588268527E-02 
477	 2,91550580826985E-02 
478	 0,025226446345931 
479	 0,028272195373451 
480	 3,03543561796056E-02 
481	 2,81828042697987E-02 
482	 2,66684698363055E-02 
483	 2,65701647549321E-02 
484	 2,81940359608099E-02 
485	 2,91669855327405E-02 
486	 2,89084250533463E-02 
487	 2,78898917113386E-02 
488	 2,82925898832682E-02 
489	 0,031302651267764 
490	 3,11986312161954E-02 
491	 2,89559682140826E-02 
492	 2,90529581360077E-02 
493	 2,84852656971857E-02 
494	 2,67676941257555E-02 
495	 2,64726620402783E-02 
496	 2,70424885397465E-02 
497	 2,76226391854643E-02 
498	 0,028037859508664 
499	 2,82409160391233E-02 
500	 2,84962329386169E-02 
501	 2,81834474600016E-02 
502	 2,71441905629799E-02 
503	 2,68817926122283E-02 
504	 2,74659314650116E-02 
505	 0,028646276174486 
506	 3,01278248733421E-02 
507	 3,11809390871666E-02 
508	 2,94289987813599E-02 
509	 2,76000950015115E-02 
510	 2,81345583742665E-02 
511	 2,82626880113581E-02 
512	 2,81121450313645E-02 
513	 2,94914688876111E-02 
514	 3,05754212424577E-02 
515	 3,04819415810232E-02 
516	 2,90526584847689E-02 
517	 2,80030022625659E-02 
518	 2,97159555218305E-02 
519	 0,029829306952297 
520	 2,84328448540747E-02 
521	 3,03247120904582E-02 
522	 3,20525955534684E-02 
523	 0,031160006111563 
524	 2,97489170635904E-02 
525	 0,028909142891678 
526	 3,03917752508816E-02 
527	 3,11423552012245E-02 
528	 3,04300644175379E-02 
529	 3,07784885282466E-02 
530	 3,14208847976064E-02 
531	 3,12865470171552E-02 
532	 3,10021281787949E-02 
533	 3,07320527460798E-02 
534	 3,04585071527522E-02 
535	 3,05232118758632E-02 
536	 3,10446561920917E-02 
537	 3,12803686914815E-02 
538	 3,11279499264257E-02 
539	 0,030529288223208 
540	 3,05767822222756E-02 
541	 3,13723353330761E-02 
542	 3,16148777069686E-02 
543	 3,15197597871119E-02 
544	 3,13791679159662E-02 
545	 3,14502889398323E-02 
546	 3,16749446333816E-02 
547	 3,16829803224946E-02 
548	 3,17852010537023E-02 
549	 3,20438397414533E-02 
550	 3,17596663199175E-02 
551	 3,14504521216525E-02 
552	 0,032014723063244 
553	 3,28220626179603E-02 
554	 3,34419213259548E-02 
555	 3,30826506001326E-02 
556	 3,23405092012253E-02 
557	 3,17990518438564E-02 
558	 3,20281733324649E-02 
559	 3,27357154751085E-02 
560	 3,30028980149757E-02 
561	 3,28316059943645E-02 
562	 3,23338342899504E-02 
563	 3,24755915220692E-02 
564	 3,25447229210592E-02 
565	 3,14848793996985E-02 
566	 3,14226924163596E-02 
567	 3,24287664221123E-02 
568	 3,26828378008717E-02 
569	 3,29741413549944E-02 
570	 0,033738279322257 
571	 3,36158237259043E-02 
572	 3,30280049148216E-02 
573	 3,32835318679651E-02 
574	 0,033815997536999 
575	 3,43970018239724E-02 
576	 0,034904352301834 
577	 3,49790384380512E-02 
578	 3,42828444103435E-02 
579	 3,43683641849002E-02 
580	 3,52969066366832E-02 
581	 3,62383186905366E-02 
582	 3,60813583795796E-02 
583	 3,45202882461087E-02 
584	 3,47081350465918E-02 
585	 0,035961713158886 
586	 0,036399100603295 
587	 3,59927108669389E-02 
588	 3,50553422393006E-02 
589	 3,51636071873528E-02 
590	 3,58119735579772E-02 
591	 3,64267829158094E-02 
592	 0,036741905364986 
593	 3,67113861719654E-02 
594	 3,63518717707898E-02 
595	 3,63676650596129E-02 
596	 3,69685436253391E-02 
597	 3,70187230092121E-02 
598	 3,67503410725053E-02 
599	 3,67039830811223E-02 
600	 3,64882978215322E-02 
601	 3,61484999519242E-02 
602	 3,61739331901483E-02 
603	 3,64039022335057E-02 
604	 3,66941413004637E-02 
605	 3,71039871561354E-02 
606	 3,73334619429557E-02 
607	 3,66487433088181E-02 
608	 0,035988475187681 
609	 3,56907316226424E-02 
610	 3,52225428924511E-02 
611	 3,50945983875543E-02 
612	 0,035960440949091 
613	 3,57415621251453E-02 
614	 0,034651384493663 
615	 3,52284949013714E-02 
616	 3,59500541024743E-02 
617	 3,58510654640001E-02 
618	 3,55453792026436E-02 
619	 3,53902355565339E-02 
620	 3,59478842108631E-02 
621	 3,62791899463552E-02 
622	 3,61828616525913E-02 
623	 3,64276742458108E-02 
624	 3,64986012147395E-02 
625	 3,58684921958158E-02 
626	 3,56688514482996E-02 
627	 3,60108929135428E-02 
628	 3,65728807832108E-02 
629	 3,65499712344162E-02 
630	 3,57042758336843E-02 
631	 3,57366304814943E-02 
632	 3,62845744678402E-02 
633	 3,64429845821651E-02 
634	 3,62337439129976E-02 
635	 3,58752745984177E-02 
636	 3,63243663838024E-02 
637	 3,68691836023513E-02 
638	 3,69150434377193E-02 
639	 3,72193586744844E-02 
640	 3,77685093419323E-02 
641	 3,82643252946339E-02 
642	 3,83917921836079E-02 
643	 3,81116661946352E-02 
644	 0,038084889817028 
645	 3,83980590722427E-02 
646	 3,90754204150411E-02 
647	 3,88185940253786E-02 
648	 3,77747502162059E-02 
649	 3,75651260352165E-02 
650	 3,80731538430171E-02 
651	 3,89805589884721E-02 
652	 3,80388436568267E-02 
653	 3,64697459698861E-02 
654	 3,75171431711227E-02 
655	 3,81711308200629E-02 
656	 3,76489190022002E-02 
657	 3,74071974983857E-02 
658	 3,70520023100222E-02 
659	 3,61349487718355E-02 
660	 3,57034251372315E-02 
661	 0,035764063119724 
662	 3,57243735397716E-02 
663	 3,52556361846077E-02 
664	 3,43543582102761E-02 
665	 3,44342823762498E-02 
666	 3,48362321827276E-02 
667	 3,42674628936156E-02 
668	 3,39779915238586E-02 
669	 3,41363849880744E-02 
670	 3,39798772647947E-02 
671	 3,37178096254364E-02 
672	 3,35675686265019E-02 
673	 3,39292214713651E-02 
674	 3,44703831475212E-02 
675	 3,42272223796698E-02 
676	 3,40341305437497E-02 
677	 0,034113749663287 
678	 3,38159257233765E-02 
679	 0,03368392642144 
680	 3,43943298041936E-02 
681	 3,49086609932174E-02 
682	 3,49839673050173E-02 
683	 3,46809719203568E-02 
684	 3,45821097486369E-02 
685	 3,50177859348465E-02 
686	 3,54446474770684E-02 
687	 3,59830049631632E-02 
688	 3,70190502596657E-02 
689	 3,77453738251076E-02 
690	 3,80402817473662E-02 
691	 3,84916714321489E-02 
692	 3,94235210409572E-02 
693	 0,041034259198203 
694	 4,21531796649276E-02 
695	 4,29711090277224E-02 
696	 4,45475658049019E-02 
697	 4,64836677695632E-02 
698	 4,85746979447402E-02 
699	 5,05228046980173E-02 
700	 5,25304870059533E-02 
701	 5,49017622098086E-02 
702	 5,71468516820539E-02 
703	 5,92266066194774E-02 
704	 6,14789909865556E-02 
705	 6,37193453108721E-02 
706	 6,58053037929603E-02 
707	 6,76131267637284E-02 
708	 6,92792401259709E-02 
709	 7,10857572531261E-02 
710	 7,27685781626706E-02 
711	 7,42689116938108E-02 
712	 7,56936620260563E-02 
713	 7,70592759586446E-02 
714	 0,078364881692118 
715	 7,93926547946953E-02 
716	 8,02634929208447E-02 
717	 8,14053262653142E-02 
718	 8,24537375733345E-02 
719	 8,32533725486837E-02 
720	 0,08381511817572 
721	 8,44544513867232E-02 
722	 8,55618381235417E-02 
723	 8,64423025477326E-02 
724	 8,69402064528522E-02 
725	 0,087169479004643 
726	 8,74043214800589E-02 
727	 8,78046364860521E-02 
728	 8,80967985344057E-02 
729	 8,82844955030459E-02 
730	 8,84131298829157E-02 
731	 8,88342888179655E-02 
732	 8,95200420104053E-02 
733	 8,98927676398476E-02 
734	 8,99961136364688E-02 
735	 8,99093946769605E-02 
736	 8,97822458018841E-02 
737	 0,089954562358763 
738	 9,13205652568449E-02 
739	 9,18990174861597E-02 
740	 9,11894836672989E-02 
741	 0,091199794610538 
742	 9,15214715585236E-02 
743	 9,14967274722324E-02 
744	 9,15883806100602E-02 
745	 9,18546074941954E-02 
746	 9,22108078163491E-02 
747	 9,24088574323386E-02 
748	 9,23509833212949E-02 
749	 9,24158000537894E-02 
750	 9,25922744285382E-02 
751	 9,27912048102332E-02 
752	 9,28861285036755E-02 
753	 9,29236270943355E-02 
754	 9,32316252558846E-02 
755	 9,35836582968946E-02 
756	 9,37946838251115E-02 
757	 9,37866601665683E-02 
758	 9,37590780389473E-02 
759	 0,094159030769909 
760	 9,43893917171452E-02 
761	 9,43293122257345E-02 
762	 9,43754453204565E-02 
763	 9,46297477477361E-02 
764	 9,51348369957219E-02 
765	 9,53705374055408E-02 
766	 9,52994827575279E-02 
767	 9,50545955771512E-02 
768	 9,51083492045303E-02 
769	 9,55633008655089E-02 
770	 9,56886929751391E-02 
771	 9,56843169459466E-02 
772	 9,58574694482598E-02 
773	 9,60521923753981E-02 
774	 0,096200271410337 
775	 9,61808645612125E-02 
776	 9,62269568919677E-02 
777	 0,096429039645324 
778	 9,64813381833153E-02 
779	 9,64699586704906E-02 
780	 9,65657943587601E-02 
781	 9,68279285602539E-02 
782	 9,71665449559687E-02 
783	 9,71919697150952E-02 
784	 9,72749425146964E-02 
785	 9,76021687384551E-02 
786	 9,75403904145873E-02 
787	 9,73174178592645E-02 
788	 9,74789069186239E-02 
789	 9,78017934877843E-02 
790	 9,81478129432067E-02 
791	 9,82821696431574E-02 
792	 9,81562891134141E-02 
793	 9,78017217804715E-02 
794	 9,78646112009049E-02 
795	 9,82492778663988E-02 
796	 9,85199640295171E-02 
797	 9,86431992770566E-02 
798	 9,86474523768377E-02 
799	 9,88355101163484E-02 
800	 9,90405489035602E-02 
801	 9,91051223952629E-02 
802	 9,93017577423158E-02 
803	 9,95512716596952E-02 
804	 9,95372773937451E-02 
805	 9,94384443468506E-02 
806	 9,93739572909507E-02 
807	 9,95586881195953E-02 
808	 9,99118715668747E-02 
809	 0,100303049928093 
810	 0,100249861049602 
811	 9,99359966906166E-02 
812	 0,100173127601593 
813	 0,100384932340967 
814	 0,1003678662292 
815	 0,100395721736014 
816	 0,10057363871989 
817	 0,100986323610944 
818	 0,101309072131629 
819	 0,101407196165781 
820	 0,101170126453134 
821	 0,100747964863722 
822	 0,100375586593143 
823	 0,100888012080243 
824	 0,101639495812916 
825	 0,101706702754896 
826	 0,101815933240823 
827	 0,1019564797498 
828	 0,101545939377103 
829	 0,101207827323055 
830	 0,101250240379763 
831	 0,101307082433873 
832	 0,101339931445201 
833	 0,10134927109109 
834	 0,101779403959522 
835	 0,102407692120346 
836	 0,102196760697832 
837	 0,101802934990939 
838	 0,101615579887554 
839	 0,101571435405036 
840	 0,101736303219197 
841	 0,102194132196193 
842	 0,102126175860249 
843	 0,101623017236484 
844	 0,101661710416052 
845	 0,102103266029575 
846	 0,10274070651 
847	 0,102688962264504 
848	 0,102350344874218 
849	 0,102437624187689 
850	 0,102553412136505 
851	 0,102621394882068 
852	 0,102740513225974 
853	 0,102593670389515 
854	 0,102132249606026 
855	 0,102249093853956 
856	 0,102628146717491 
857	 0,102702280330322 
858	 0,102507707957926 
859	 0,102179823238372 
860	 0,102181409023111 
861	 0,101995469022421 
862	 0,101513780832174 
863	 0,101857197082833 
864	 0,102472588368915 
865	 0,102503527623048 
866	 0,102687637773932 
867	 0,103025107914907 
868	 0,103099963827064 
869	 0,102659422449532 
870	 0,101810545052225 
871	 0,101963975881953 
872	 0,102515342866191 
873	 0,102583690034014 
874	 0,102755878766716 
875	 0,103076841186103 
876	 0,103336639382444 
877	 0,103684593804032 
878	 0,104090373824634 
879	 0,10411357808655 
880	 0,10386074017319 
881	 0,103520182475136 
882	 0,103662219383188 
883	 0,104068383864192 
884	 0,10380664272029 
885	 0,103645320199547 
886	 0,103877045243275 
887	 0,104555774941262 
888	 0,104884413833252 
889	 0,104229149850335 
890	 0,104372307057022 
891	 0,104919688358045 
892	 0,104269128406303 
893	 0,103656158093817 
894	 0,103545070767731 
895	 0,104105992879083 
896	 0,104457463553457 
897	 0,103979151718452 
898	 0,103721399406117 
899	 0,103933398207856 
900	 0,104786599270121 
901	 0,104745335317544 
902	 0,103859388560881 
903	 0,104187699312145 
904	 0,104482338311186 
905	 0,104035102290486 
906	 0,103727317834002 
907	 0,103753419879611 
908	 0,104223118615357 
909	 0,103910529326535 
910	 0,103141176546471 
911	 0,103994578749795 
912	 0,104638746637907 
913	 0,104281694248041 
914	 0,103808299397964 
915	 0,10353779389945 
916	 0,103695582737929 
917	 0,103214826415253 
918	 0,102625163724604 
919	 0,103876204550886 
920	 0,104821924539669 
921	 0,104708542052737 
922	 0,104092580894504 
923	 0,10292438760151 
924	 0,10143770102916 
925	 0,102328518282046 
926	 0,104133879554017 
927	 0,103478357030791 
928	 0,102970260839798 
929	 0,103104961891638 
930	 0,102948717087637 
931	 0,102630969476069 
932	 0,102378167987623 
933	 0,103291012263066 
934	 0,103969229932873 
935	 0,102597681279799 
936	 0,103275180209194 
937	 0,105158991184558 
938	 0,103093932701242 
939	 0,102039946193449 
940	 0,103179305061017 
941	 0,102093963716486 
942	 0,100827679694365 
943	 0,10132407355089 
944	 0,102243093804025 
945	 0,102552442680459 
946	 0,100751828472252 
947	 0,100057600204896 
948	 0,100544070483643 
949	 9,85814575436069E-02 
950	 9,73983324154546E-02 
951	 9,84798104586415E-02 
952	 0,098414225662849 
953	 9,78072514252323E-02 
954	 9,77896506866153E-02 
955	 9,76949342388738E-02 
956	 9,73301919039016E-02 
957	 9,66048893619927E-02 
958	 9,51733237691499E-02 
959	 0,093584838572185 
960	 9,47019011935878E-02 
961	 9,58329505043752E-02 
962	 9,50283326662972E-02 
963	 9,48671634377416E-02 
964	 0,095015303990096 
965	 9,44482587731854E-02 
966	 9,41982400852919E-02 
967	 0,094359677626139 
968	 9,44908108017755E-02 
969	 9,41354810912263E-02 
970	 9,33051938354723E-02 
971	 9,32018070609502E-02 
972	 9,35911519902218E-02 
973	 9,40510140264681E-02 
974	 9,33429431178902E-02 
975	 9,18928357364217E-02 
976	 9,07652837075719E-02 
977	 9,20072327298615E-02 
978	 9,49001715695557E-02 
979	 9,49685082429347E-02 
980	 9,41519923605623E-02 
981	 9,38096411621656E-02 
982	 9,60150840678164E-02 
983	 9,77714868332107E-02 
984	 9,61255026221556E-02 
985	 9,46350822718653E-02 
986	 9,45298888657362E-02 
987	 9,68625566292818E-02 
988	 9,75886250989462E-02 
989	 9,64341975312647E-02 
990	 9,74148144384748E-02 
991	 9,70367811750523E-02 
992	 9,44665530444244E-02 
993	 9,61585703812873E-02 
994	 9,88890044615321E-02 
995	 9,88549185636702E-02 
996	 9,81466579476618E-02 
997	 9,77251254428011E-02 
998	 0,098778775739501 
999	 0,099012886632528 
1000	 9,84371236756949E-02 
1001	 9,97027675068297E-02 
1002	 0,100236083267113 
1003	 9,91327224757022E-02 
1004	 9,88574987915312E-02 
1005	 0,100318647441115 
1006	 0,103759216341916 
1007	 0,104361724212797 
1008	 0,10346116519176 
1009	 0,105075936607493 
1010	 0,102535903377738 
1011	 9,71247698188311E-02 
1012	 9,83026848884464E-02 
1013	 0,102132221904275 
1014	 0,105647970636255 
1015	 0,103509475071246 
1016	 0,100922809660327 
1017	 0,102545607620586 
1018	 0,106198068329095 
1019	 0,108974239477799 
1020	 0,107185750156593 
1021	 0,102220032773451 
1022	 9,84466026485727E-02 
1023	 0,106881496409892 
1024	 0,110449831802575 
1025	 0,10582066531124 
1026	 0,107208146482867 
1027	 0,110257678146866 
1028	 0,111442751352819 
1029	 0,108369473576215 
1030	 0,106653883257519 
1031	 0,112167298512112 
1032	 0,11000151380833 
1033	 0,104587525328322 
1034	 0,110629345452433 
1035	 0,114592838398681 
1036	 0,113093735504337 
1037	 0,10789341724809 
1038	 0,106991229561044 
1039	 0,111775441256366 
1040	 0,108171314825545 
1041	 0,102196439419331 
1042	 0,100231417913125 
1043	 0,105171921892098 
1044	 0,111237809337179 
1045	 0,110228578751451 
1046	 0,112949109186199 
1047	 0,120441256850983 
1048	 0,129635651297652 
1049	 0,127842339098334 
1050	 0,116273652528216 
1051	 0,116671167449813 
1052	 0,118923021919939 
1053	 0,117488348337456 
1054	 0,110897453795328 
1055	 0,109656745992773 
1056	 0,120640960547739 
1057	 0,125018976383394 
1058	 0,121242942820035 
1059	 0,111771360670892 
1060	 0,111484953050446 
1061	 0,118414855282281 
1062	 0,120330749206634 
1063	 0,119250604493253 
1064	 0,115910223751321 
1065	 0,111806387221143 
1066	 0,11118090579724 
1067	 0,112428974881358 
1068	 9,40966064395423E-02 
1069	 8,84714420883399E-02 
1070	 0,116036908951538 
1071	 0,12633444552365 
1072	 0,124738435367694 
1073	 0,123545414116292 
1074	 0,118186108942058 
1075	 0,114047819047444 
