Wavelength	SCORFF200675.asd
325	 9,22234031512913E-02 
326	 0,290777167835722 
327	 0,359491308725526 
328	 0,258773531751762 
329	 0,255475360553561 
330	 0,24186039677428 
331	 0,128515963662407 
332	 4,03826510384843E-02 
333	 0,0350180459804 
334	 0,151548960541485 
335	 0,294149666514106 
336	 0,329130164512678 
337	 0,221132242239231 
338	 3,35280986992723E-02 
339	-8,40388525319271E-02 
340	-1,85009453945778E-02 
341	 0,113882763041785 
342	 0,107825706768745 
343	 0,160247570656817 
344	 0,25944443042644 
345	 0,178075036337209 
346	 7,30699382900711E-02 
347	 0,106137889679373 
348	 0,125099944041172 
349	 0,127239452810668 
350	 0,188311990470163 
351	 0,202363985106623 
352	 0,13735315976657 
353	 8,72621800614356E-02 
354	 5,64869967711002E-02 
355	 4,75136995429566E-02 
356	 7,18776595543485E-02 
357	 0,102799375445851 
358	 7,71510667950521E-02 
359	 6,14141275947029E-02 
360	 7,62199252464556E-02 
361	 4,87719527789984E-02 
362	 2,01547359687132E-02 
363	 6,02105024898144E-02 
364	 8,55689991551313E-02 
365	 8,70903264524548E-02 
366	 9,83499951573747E-02 
367	 8,67709771025621E-02 
368	 4,11266565883835E-02 
369	 3,09879706740693E-02 
370	 4,44896872989585E-02 
371	 4,20368396786165E-02 
372	 4,22351758076675E-02 
373	 4,90166965265227E-02 
374	 6,05399042039813E-02 
375	 0,067637527465361 
376	 6,49918571139214E-02 
377	 6,09587867230744E-02 
378	 5,57456770413124E-02 
379	 0,044412794153627 
380	 3,96909523571825E-02 
381	 4,59123118471543E-02 
382	 0,060278889506242 
383	 6,64280435150547E-02 
384	 5,26540646745928E-02 
385	 5,05803042813044E-02 
386	 5,86117714354701E-02 
387	 5,67201064929884E-02 
388	 5,39873713431678E-02 
389	 5,29448346124408E-02 
390	 4,55546943107183E-02 
391	 4,38996126588165E-02 
392	 6,27028350988917E-02 
393	 5,62750699888059E-02 
394	 3,09899873686097E-02 
395	 0,037566194841949 
396	 4,30444766943977E-02 
397	 3,40039919813643E-02 
398	 3,90162938944027E-02 
399	 4,79761170961912E-02 
400	 4,23514993077441E-02 
401	 3,48160706295888E-02 
402	 0,030559019971009 
403	 0,033151983076259 
404	 4,17446148490869E-02 
405	 5,31435692714122E-02 
406	 4,58941482280625E-02 
407	 3,34829195650541E-02 
408	 5,05226415880956E-02 
409	 5,68756664762333E-02 
410	 0,045673612258881 
411	 4,35306242634007E-02 
412	 4,25807860249447E-02 
413	 3,49632885331349E-02 
414	 3,40165766614829E-02 
415	 3,80531357385622E-02 
416	 3,68437839347212E-02 
417	 3,66621589864761E-02 
418	 3,89278985595281E-02 
419	 3,64815467634139E-02 
420	 3,38149054568934E-02 
421	 3,73128745275434E-02 
422	 3,87052950403206E-02 
423	 3,76918485219149E-02 
424	 4,00053832874119E-02 
425	 4,15879279513741E-02 
426	 4,02115240976267E-02 
427	 3,86730948953667E-02 
428	 0,037443641872626 
429	 3,61745765742692E-02 
430	 3,87080180685011E-02 
431	 4,38561179976474E-02 
432	 4,18995316762782E-02 
433	 3,85024138273051E-02 
434	 3,89571834288382E-02 
435	 4,07884931346086E-02 
436	 4,23824369340227E-02 
437	 4,08210159113542E-02 
438	 3,92989660935053E-02 
439	 3,90493912264797E-02 
440	 3,88136942947368E-02 
441	 3,83479587966702E-02 
442	 3,74715900675981E-02 
443	 3,83570484281385E-02 
444	 4,05358786733296E-02 
445	 4,08388754541267E-02 
446	 4,04597496126019E-02 
447	 0,040173240928723 
448	 3,96868272252993E-02 
449	 3,99867448219233E-02 
450	 4,30542043459021E-02 
451	 4,45560700216509E-02 
452	 4,36656684251398E-02 
453	 4,38465953138447E-02 
454	 4,31588406991212E-02 
455	 3,99403666197258E-02 
456	 3,91532162510861E-02 
457	 4,01660512786598E-02 
458	 3,82771468362283E-02 
459	 3,79815834989719E-02 
460	 4,06739766522181E-02 
461	 4,27857887771399E-02 
462	 4,37397951957509E-02 
463	 4,33226965175253E-02 
464	 4,22073017449741E-02 
465	 4,09297311023767E-02 
466	 4,00212018040252E-02 
467	 4,08976653706748E-02 
468	 4,39448517633448E-02 
469	 4,40222637253699E-02 
470	 4,23453984152582E-02 
471	 4,28149090904503E-02 
472	 4,33158960190193E-02 
473	 4,32983496915515E-02 
474	 4,30644984462572E-02 
475	 4,34150338415491E-02 
476	 4,49853356586672E-02 
477	 4,48579357696515E-02 
478	 4,30574101676985E-02 
479	 0,041123158920596 
480	 4,01629617061898E-02 
481	 4,09005905407472E-02 
482	 4,39422591745726E-02 
483	 4,63416257999213E-02 
484	 4,38133646614177E-02 
485	 4,31617117499615E-02 
486	 4,51126571467644E-02 
487	 4,50196530798616E-02 
488	 4,39350618847733E-02 
489	 4,28965947702152E-02 
490	 4,33793462464588E-02 
491	 4,49211457325831E-02 
492	 4,62512096174698E-02 
493	 4,56488222113448E-02 
494	 4,31879422514945E-02 
495	 4,28605830746129E-02 
496	 4,41427782318063E-02 
497	 4,60304108287208E-02 
498	 0,046687777200394 
499	 4,59377352208267E-02 
500	 4,48432139927678E-02 
501	 4,35730424753912E-02 
502	 4,25778155523792E-02 
503	 4,39603275939694E-02 
504	 4,66051615703825E-02 
505	 0,048368422719929 
506	 4,83565515612866E-02 
507	 4,66606726996857E-02 
508	 4,51279980455636E-02 
509	 4,42549885807335E-02 
510	 4,44034939924724E-02 
511	 4,57387860112541E-02 
512	 4,73502819711984E-02 
513	 4,70543913130655E-02 
514	 0,046351467588709 
515	 0,046028044381965 
516	 0,046564030307369 
517	 4,73154748761788E-02 
518	 4,73258415577614E-02 
519	 4,71301589377225E-02 
520	 4,71935942132699E-02 
521	 4,87487701887987E-02 
522	 4,99434290257833E-02 
523	 4,95171865240036E-02 
524	 4,91707135590839E-02 
525	 4,92126723975658E-02 
526	 4,98036976062551E-02 
527	 4,96069317953193E-02 
528	 4,85879477076335E-02 
529	 4,93288983751182E-02 
530	 5,04894720854739E-02 
531	 5,03478219439851E-02 
532	 4,94536707804603E-02 
533	 4,86913245292394E-02 
534	 5,05155383692535E-02 
535	 5,17883760485551E-02 
536	 5,08242670428878E-02 
537	 5,01536356426176E-02 
538	 5,01580106786868E-02 
539	 5,08968152060784E-02 
540	 5,13418232574924E-02 
541	 5,13178715358648E-02 
542	 5,19253585357517E-02 
543	 5,22326493086221E-02 
544	 5,13667146158416E-02 
545	 5,12474413840678E-02 
546	 5,18796344875663E-02 
547	 5,21109645581746E-02 
548	 0,052284826581094 
549	 5,25773079609306E-02 
550	 5,32387704971169E-02 
551	 5,37882172937038E-02 
552	 5,34403461472393E-02 
553	 5,32661348450191E-02 
554	 5,34638573702178E-02 
555	 5,34713889622882E-02 
556	 5,33858025733841E-02 
557	 5,33208789937923E-02 
558	 5,35502021030188E-02 
559	 5,39337052016822E-02 
560	 5,39880133336426E-02 
561	 5,40847681756174E-02 
562	 5,43789949796398E-02 
563	 5,50201807480561E-02 
564	 5,51519459785415E-02 
565	 5,36427262603059E-02 
566	 5,37721283451151E-02 
567	 5,54845731672638E-02 
568	 5,53114148227442E-02 
569	 5,52401998833428E-02 
570	 5,64906036042679E-02 
571	 5,66209213787522E-02 
572	 5,60778658890383E-02 
573	 5,66355342748626E-02 
574	 5,72435801051114E-02 
575	 5,75692583231957E-02 
576	 5,78422867347781E-02 
577	 5,78562400411278E-02 
578	 5,74053671672386E-02 
579	 5,79945231079828E-02 
580	 5,92886266418307E-02 
581	 5,91750720179759E-02 
582	 5,86953862565822E-02 
583	 5,85180731536339E-02 
584	 5,89013167240209E-02 
585	 5,96350370017504E-02 
586	 6,03874828731927E-02 
587	 5,98872085655648E-02 
588	 5,84632586232377E-02 
589	 5,93848522994792E-02 
590	 6,09106324195245E-02 
591	 0,061269881741968 
592	 6,08870085840327E-02 
593	 6,02898121301372E-02 
594	 6,06930713184767E-02 
595	 6,12805190718186E-02 
596	 6,15777529103429E-02 
597	 6,10427036495533E-02 
598	 6,06423841238979E-02 
599	 6,19196680913066E-02 
600	 6,23370587673415E-02 
601	 6,15741910209312E-02 
602	 6,13031220274146E-02 
603	 0,061545693899885 
604	 6,22080841551422E-02 
605	 6,22730369772068E-02 
606	 6,17542182288106E-02 
607	 6,11228160559409E-02 
608	 0,060579853124237 
609	 6,03079984793708E-02 
610	 6,05342191918605E-02 
611	 6,08849261280983E-02 
612	 6,08886267841339E-02 
613	 6,05534432579461E-02 
614	 0,060243992407593 
615	 6,12560207830397E-02 
616	 6,18863435952643E-02 
617	 6,11293501582979E-02 
618	 6,04222693065089E-02 
619	 6,02432728520554E-02 
620	 6,11570452615474E-02 
621	 6,15149743349397E-02 
622	 6,10039885687615E-02 
623	 6,11561969063961E-02 
624	 6,14163079067779E-02 
625	 6,11504460206667E-02 
626	 0,061123078482286 
627	 6,14288170637912E-02 
628	 6,19315539019995E-02 
629	 6,21125358456112E-02 
630	 6,17541127060077E-02 
631	 0,061509289687392 
632	 0,061441675789169 
633	 6,15015909912987E-02 
634	 6,16445716354094E-02 
635	 6,19059244680049E-02 
636	 6,25521326318021E-02 
637	 6,30841090654328E-02 
638	 6,30957083380725E-02 
639	 6,30489503047689E-02 
640	 6,31892512166847E-02 
641	 0,06396311888995 
642	 6,44229070022311E-02 
643	 6,42529333451386E-02 
644	 0,064204056441435 
645	 6,42696532629164E-02 
646	 0,064345896025906 
647	 0,064328176534981 
648	 6,42456123755155E-02 
649	 6,42770050311004E-02 
650	 6,44813837547185E-02 
651	 6,48198326965084E-02 
652	 6,45768694895464E-02 
653	 6,40371458882525E-02 
654	 6,40250840845644E-02 
655	 6,38142508266249E-02 
656	 6,32631031908016E-02 
657	 6,28746374049503E-02 
658	 6,25616179688062E-02 
659	 6,22027309650118E-02 
660	 6,18545341724576E-02 
661	 6,14255702951459E-02 
662	 6,05859447643309E-02 
663	 0,059921506625995 
664	 5,97223617898232E-02 
665	 0,059672893034849 
666	 5,96342072181995E-02 
667	 5,94533624187942E-02 
668	 5,93684207891173E-02 
669	 0,059458528057494 
670	 0,059804808511385 
671	 5,99189951900805E-02 
672	 5,94709901781328E-02 
673	 5,93856500123483E-02 
674	 5,96569360076287E-02 
675	 5,99280230274362E-02 
676	 5,98405143922009E-02 
677	 0,059404063446194 
678	 5,95801420410229E-02 
679	 6,00378349526055E-02 
680	 6,02898503857792E-02 
681	 6,06491899001329E-02 
682	 6,10880631529933E-02 
683	 6,13122103724405E-02 
684	 6,16025118373925E-02 
685	 6,21065749610379E-02 
686	 6,25403813796971E-02 
687	 6,30148257439259E-02 
688	 0,063794382959646 
689	 6,45779443880418E-02 
690	 6,53331077841626E-02 
691	 6,62936027566165E-02 
692	 6,75543655522942E-02 
693	 6,91668432152233E-02 
694	 7,07747405615166E-02 
695	 7,22794248024928E-02 
696	 7,35637632781493E-02 
697	 0,075304486210195 
698	 7,76686256642637E-02 
699	 7,96804070502065E-02 
700	 8,17023054363618E-02 
701	 8,43189665965466E-02 
702	 8,65270685784748E-02 
703	 8,84291331413593E-02 
704	 9,13857508811843E-02 
705	 9,37924509100182E-02 
706	 9,48316717451874E-02 
707	 9,68118861803198E-02 
708	 9,94522403477221E-02 
709	 0,101593783689824 
710	 0,103674180438365 
711	 0,105771035798669 
712	 0,107816920120547 
713	 0,109535029114869 
714	 0,110715793724255 
715	 0,112135403741366 
716	 0,113685098925616 
717	 0,114650882054518 
718	 0,115549322150142 
719	 0,116582517044009 
720	 0,11750863218321 
721	 0,118574751959536 
722	 0,120115020641451 
723	 0,121042179653761 
724	 0,121310000528114 
725	 0,121680438859726 
726	 0,122311546200361 
727	 0,123254448847281 
728	 0,123929434217742 
729	 0,124447136203358 
730	 0,125172689441274 
731	 0,125796208720803 
732	 0,126243355187472 
733	 0,126643402077245 
734	 0,126937583890573 
735	 0,127087545922521 
736	 0,127248336161359 
737	 0,127611001936484 
738	 0,128685131600018 
739	 0,12915159970551 
740	 0,128690914313462 
741	 0,128668757352752 
742	 0,129055427178977 
743	 0,129664852469267 
744	 0,129942765901368 
745	 0,129906968616823 
746	 0,130087725122827 
747	 0,13024823530791 
748	 0,130306063541051 
749	 0,130562160279705 
750	 0,130876916490071 
751	 0,130980807369831 
752	 0,131238803067231 
753	 0,131634836106987 
754	 0,131723318806857 
755	 0,13178678475028 
756	 0,132016690458435 
757	 0,132061735396791 
758	 0,132172594291373 
759	 0,133014323174211 
760	 0,133417341240112 
761	 0,133198926814733 
762	 0,133493331379947 
763	 0,133952046186592 
764	 0,13419631137705 
765	 0,13439429617987 
766	 0,134541808105471 
767	 0,134532212414282 
768	 0,13465858230876 
769	 0,134987708898482 
770	 0,135133262009636 
771	 0,135213855181867 
772	 0,135407530037687 
773	 0,135745945146942 
774	 0,136128044240251 
775	 0,136257971291885 
776	 0,136229724781879 
777	 0,136118140404736 
778	 0,136061861298206 
779	 0,136100016436332 
780	 0,136251819919582 
781	 0,136520464149973 
782	 0,136850240758122 
783	 0,137100878314291 
784	 0,137218532525082 
785	 0,137183620068391 
786	 0,137148001664866 
787	 0,137159690742177 
788	 0,1372421306453 
789	 0,137487083133963 
790	 0,137829152066945 
791	 0,137926336057579 
792	 0,137869660275115 
793	 0,137787243092346 
794	 0,138163608112953 
795	 0,138688944544716 
796	 0,138509092183107 
797	 0,138463172287263 
798	 0,138745769180552 
799	 0,138839168731162 
800	 0,138925010628155 
801	 0,139174923027173 
802	 0,139202983703724 
803	 0,139141472511139 
804	 0,139512571546695 
805	 0,139893669170042 
806	 0,140082867180462 
807	 0,139883566497041 
808	 0,139827397693224 
809	 0,140438863729274 
810	 0,140301665999244 
811	 0,139768539171954 
812	 0,140747795820481 
813	 0,141251947763856 
814	 0,1406989955141 
815	 0,141067593284602 
816	 0,141647742239067 
817	 0,141424133684183 
818	 0,141352953100771 
819	 0,141524821300126 
820	 0,141544304756314 
821	 0,141634833469839 
822	 0,141817172718205 
823	 0,141487579906555 
824	 0,141307175942808 
825	 0,142164345326333 
826	 0,142783014695827 
827	 0,142890482737552 
828	 0,142681445854642 
829	 0,142614263395002 
830	 0,142853558346499 
831	 0,142592816539186 
832	 0,142224806686393 
833	 0,142386465451787 
834	 0,143324272810004 
835	 0,144474383318133 
836	 0,143869091937086 
837	 0,14313574379703 
838	 0,143199561765612 
839	 0,143733632793125 
840	 0,144168616305638 
841	 0,143767433793202 
842	 0,143681838159762 
843	 0,14395710459138 
844	 0,14370792469146 
845	 0,143422049064663 
846	 0,143414576623815 
847	 0,143915639925042 
848	 0,144315696103069 
849	 0,143743759157162 
850	 0,143993218365332 
851	 0,144985524590346 
852	 0,144976966690291 
853	 0,144513858204591 
854	 0,1440176687183 
855	 0,144270950735821 
856	 0,144676816076349 
857	 0,144305659649586 
858	 0,14398531183822 
859	 0,143838594075809 
860	 0,143571208074995 
861	 0,143347668951246 
862	 0,143274835768753 
863	 0,143405860922475 
864	 0,143712420531931 
865	 0,144142695728289 
866	 0,144447385957456 
867	 0,144613122101389 
868	 0,144917688998183 
869	 0,144678614047163 
870	 0,143876148508349 
871	 0,144479130550201 
872	 0,14542855718174 
873	 0,145261836301623 
874	 0,145086477795764 
875	 0,14503005669199 
876	 0,144636647042898 
877	 0,144924983494241 
878	 0,146076412234541 
879	 0,146494933918264 
880	 0,146506055879687 
881	 0,146601106852596 
882	 0,146554274636056 
883	 0,146443965204498 
884	 0,146514276494762 
885	 0,146720821421136 
886	 0,147000894849176 
887	 0,147067455421995 
888	 0,147259549175507 
889	 0,147865403129519 
890	 0,14825722036853 
891	 0,148296122927098 
892	 0,147953702869752 
893	 0,147552855544085 
894	 0,147343894647673 
895	 0,147843560590837 
896	 0,147980980828181 
897	 0,147047362448111 
898	 0,146750912531863 
899	 0,147117607754994 
900	 0,147710891023694 
901	 0,14793234314696 
902	 0,147714204803757 
903	 0,147649229841938 
904	 0,147659018420639 
905	 0,147649628708636 
906	 0,14730108535745 
907	 0,146804581157687 
908	 0,146485715765517 
909	 0,146571877260081 
910	 0,146885212624778 
911	 0,146544006158544 
912	 0,146982744237329 
913	 0,14841333615313 
914	 0,147815562325072 
915	 0,146843479924289 
916	 0,147548176891304 
917	 0,14806925241843 
918	 0,14820124540503 
919	 0,148280981472623 
920	 0,149088778322201 
921	 0,150318090655718 
922	 0,149135296155379 
923	 0,147845443618242 
924	 0,148398988612 
925	 0,149130663460229 
926	 0,149434537928661 
927	 0,14872356709036 
928	 0,148090033293513 
929	 0,148028222276721 
930	 0,14907604339708 
931	 0,149578255787243 
932	 0,148781022263452 
933	 0,148782785416232 
934	 0,149478436014454 
935	 0,150401276358009 
936	 0,151452669896448 
937	 0,151971924241437 
938	 0,150208486752719 
939	 0,149091583575378 
940	 0,149616608714741 
941	 0,150146096436975 
942	 0,150708181891909 
943	 0,151309819170558 
944	 0,151105633768673 
945	 0,150525675596331 
946	 0,150624338419688 
947	 0,150574091906718 
948	 0,150247381347444 
949	 0,150050922554753 
950	 0,149710489181758 
951	 0,149257073694367 
952	 0,149921225822696 
953	 0,150721870222893 
954	 0,15037853744135 
955	 0,149925976211816 
956	 0,14968247712191 
957	 0,150001003658866 
958	 0,149281558104303 
959	 0,147736713172792 
960	 0,148920388597337 
961	 0,150724794567888 
962	 0,151339647798507 
963	 0,15082531052174 
964	 0,149818005415867 
965	 0,149291503621778 
966	 0,149230475698732 
967	 0,149628751964769 
968	 0,150521431441061 
969	 0,150602574429228 
970	 0,149569587824385 
971	 0,14913648239663 
972	 0,14935031418182 
973	 0,15007466672175 
974	 0,150738342446692 
975	 0,150668539937753 
976	 0,148881826160817 
977	 0,148948808258945 
978	 0,151018109614225 
979	 0,151941889012593 
980	 0,152062055194855 
981	 0,151683004529393 
982	 0,151799317041962 
983	 0,152221582370467 
984	 0,152651072120481 
985	 0,153000940203112 
986	 0,153419400902855 
987	 0,154282706488619 
988	 0,154471488457556 
989	 0,153851436461479 
990	 0,153097117202629 
991	 0,152945483349201 
992	 0,153707829208372 
993	 0,154490040738026 
994	 0,155457960879088 
995	 0,156676198410493 
996	 0,155560177117514 
997	 0,153265138696657 
998	 0,152864524175041 
999	 0,154002891821926 
1000	 0,1559942242209 
1001	 0,156805059712057 
1002	 0,15640568014278 
1003	 0,155304063280641 
1004	 0,15657928219509 
1005	 0,157943702945898 
1006	 0,157083134848722 
1007	 0,156445081186194 
1008	 0,156837697727556 
1009	 0,158936831494652 
1010	 0,158703100079768 
1011	 0,155936465347271 
1012	 0,153331873732561 
1013	 0,154062581615493 
1014	 0,158404192991136 
1015	 0,159983772100809 
1016	 0,158322978105931 
1017	 0,154328121586323 
1018	 0,156634508677793 
1019	 0,160732091921124 
1020	 0,158141218204057 
1021	 0,154196012279408 
1022	 0,152709581601229 
1023	 0,160666992548166 
1024	 0,165876078540466 
1025	 0,164673202634692 
1026	 0,162390427424592 
1027	 0,160458080360827 
1028	 0,159769324981722 
1029	 0,158900553956913 
1030	 0,158650656192098 
1031	 0,160060018989755 
1032	 0,162888155923356 
1033	 0,166357722346341 
1034	 0,169231642245768 
1035	 0,169218317847288 
1036	 0,166271508766025 
1037	 0,162475592095485 
1038	 0,161382692214834 
1039	 0,163361863016538 
1040	 0,160703604095426 
1041	 0,156820459211748 
1042	 0,155411621597473 
1043	 0,15868914899175 
1044	 0,162657573781664 
1045	 0,161730344238273 
1046	 0,16585663754682 
1047	 0,174807101015458 
1048	 0,182687476096453 
1049	 0,182950881388777 
1050	 0,175492896985142 
1051	 0,168523963009751 
1052	 0,166134246979416 
1053	 0,16901310948615 
1054	 0,168247252684084 
1055	 0,167751438710086 
1056	 0,170680510127368 
1057	 0,170781264994436 
1058	 0,167614211435402 
1059	 0,162423669519628 
1060	 0,167189620977529 
1061	 0,174443092229197 
1062	 0,161756486456759 
1063	 0,153589301874244 
1064	 0,156913276922686 
1065	 0,166912027940727 
1066	 0,18051709144349 
1067	 0,189140254170643 
1068	 0,160138721801874 
1069	 0,140058505029608 
1070	 0,163170576810463 
1071	 0,176449847144242 
1072	 0,179890803338793 
1073	 0,179437547974125 
1074	 0,165493390874514 
1075	 0,151183152419495 
