Wavelength	SCORFF200538.asd
325	 0,167198084747764 
326	 0,353950645522009 
327	 0,308560174563665 
328	 6,87357903469208E-02 
329	 8,05203892553095E-02 
330	 0,150437254954781 
331	 0,128360159322502 
332	 9,19104100298975E-02 
333	 7,78651415672418E-02 
334	 0,130208914425973 
335	 0,137653467942252 
336	 8,60999074796889E-02 
337	 9,40799417687014E-02 
338	 9,63731162526626E-02 
339	 3,02790838045619E-02 
340	 6,21134899987205E-02 
341	 0,127694523727796 
342	 5,65353846812375E-02 
343	 7,92133515326571E-02 
344	 0,201901322058051 
345	 0,194083848110465 
346	 0,143838960328378 
347	 0,139800730366251 
348	 0,156030719331562 
349	 0,169161512817565 
350	 0,138413431113427 
351	 8,94595509421189E-02 
352	 4,94610736523178E-02 
353	 3,35056339125812E-02 
354	 3,03611485056676E-02 
355	 2,98528524055535E-02 
356	 5,79838639518566E-02 
357	 9,14194242969795E-02 
358	 6,68734343465884E-02 
359	 5,95537227031695E-02 
360	 8,96717624217843E-02 
361	 4,41413173889215E-02 
362	-8,67326886405652E-03 
363	 4,82514712539611E-02 
364	 6,41047528090929E-02 
365	 3,20058693961248E-02 
366	 4,55999693477782E-02 
367	 5,72792091759049E-02 
368	 3,99290620641386E-02 
369	 1,96567117130858E-02 
370	 9,19991628923619E-03 
371	 2,77192001189189E-02 
372	 3,92118281291277E-02 
373	 3,96626362438143E-02 
374	 5,91696321983639E-02 
375	 7,24506353174672E-02 
376	 6,35281358740228E-02 
377	 5,92254580544648E-02 
378	 5,74825829424833E-02 
379	 4,31789652989313E-02 
380	 2,89760479267977E-02 
381	 2,32551804373008E-02 
382	 4,41046851727455E-02 
383	 6,07278443068754E-02 
384	 4,80904155064435E-02 
385	 4,68034311207416E-02 
386	 5,70498687814932E-02 
387	 6,04971558959458E-02 
388	 5,92511332183949E-02 
389	 5,19063139984692E-02 
390	 2,38268435814757E-02 
391	 5,36524565950397E-03 
392	 3,49032469602826E-02 
393	 4,07476716515543E-02 
394	 2,34013881317777E-02 
395	 3,47903810690591E-02 
396	 3,95450062812679E-02 
397	 2,44370549079726E-02 
398	 0,026002449071012 
399	 3,47045808311703E-02 
400	 3,13445611766015E-02 
401	 1,93300980682781E-02 
402	 6,20910821153443E-03 
403	 1,20492894095737E-02 
404	 2,77083244223884E-02 
405	 4,31172505121799E-02 
406	 3,26167983173875E-02 
407	 0,012335840304094 
408	 2,17906579701529E-02 
409	 0,031772201464877 
410	 3,43733486662461E-02 
411	 3,74527618289481E-02 
412	 0,034240623016002 
413	 0,019530594928503 
414	 1,95844922076762E-02 
415	 3,04654422660724E-02 
416	 3,09004374670348E-02 
417	 2,78372144047913E-02 
418	 2,40254840236024E-02 
419	 1,85760886993375E-02 
420	 1,61362653763982E-02 
421	 2,24550566947902E-02 
422	 2,73836065467019E-02 
423	 2,87797446008346E-02 
424	 2,91789520660118E-02 
425	 2,75871582286077E-02 
426	 2,37320026907621E-02 
427	 1,99465775378131E-02 
428	 1,79382043269083E-02 
429	 1,99697694372784E-02 
430	 2,11597019095017E-02 
431	 2,05339402139036E-02 
432	 2,07013314695041E-02 
433	 2,29641790136938E-02 
434	 2,79432643341332E-02 
435	 2,92968108203263E-02 
436	 2,71626666532408E-02 
437	 2,47252277412312E-02 
438	 2,30359949254918E-02 
439	 2,26460036838944E-02 
440	 2,26180501032998E-02 
441	 2,21685800421177E-02 
442	 2,04434362364465E-02 
443	 2,26638159102614E-02 
444	 2,75635804271757E-02 
445	 2,72055702567166E-02 
446	 2,45311487210686E-02 
447	 2,18089887981681E-02 
448	 2,16475430889969E-02 
449	 2,33254348848729E-02 
450	 2,47723119914222E-02 
451	 2,57876147349034E-02 
452	 0,026036933918837 
453	 2,51999217971519E-02 
454	 2,35071309170243E-02 
455	 2,13176417719633E-02 
456	 2,07075560896093E-02 
457	 2,14085323917869E-02 
458	 2,12624515076296E-02 
459	 2,26594452230888E-02 
460	 2,56050661767602E-02 
461	 2,40049809878499E-02 
462	 2,10057321379006E-02 
463	 2,14918275367394E-02 
464	 2,14128360133114E-02 
465	 2,05592019165764E-02 
466	 0,021709863136385 
467	 2,28111258622385E-02 
468	 2,25777708939886E-02 
469	 2,30279744235308E-02 
470	 2,31419925421793E-02 
471	 2,00117093703984E-02 
472	 0,019337734836107 
473	 2,20517471715742E-02 
474	 2,29454424386301E-02 
475	 2,30113670878462E-02 
476	 2,34468325513989E-02 
477	 2,25106112062565E-02 
478	 2,08553431276019E-02 
479	 2,10849470856013E-02 
480	 2,14585823142595E-02 
481	 2,10941582621179E-02 
482	 1,98058031756999E-02 
483	 1,87547357275834E-02 
484	 1,95757422986356E-02 
485	 2,14388949517123E-02 
486	 2,32429278043016E-02 
487	 2,20672122145561E-02 
488	 2,08182825258423E-02 
489	 2,15957209348468E-02 
490	 2,15631329299844E-02 
491	 2,07278435253706E-02 
492	 1,99847776517742E-02 
493	 2,00321773537734E-02 
494	 2,08360503763558E-02 
495	 0,020423198050302 
496	 2,00937372130578E-02 
497	 2,14322688336873E-02 
498	 2,24428483338493E-02 
499	 2,26438367975205E-02 
500	 2,20844029878201E-02 
501	 2,14650248737378E-02 
502	 2,12642231400009E-02 
503	 2,15957494207953E-02 
504	 2,21363116062985E-02 
505	 2,23599961985618E-02 
506	 2,22484863384157E-02 
507	 2,16521764226999E-02 
508	 1,98765289152566E-02 
509	 1,87196508223215E-02 
510	 1,97086236033352E-02 
511	 2,06877491086911E-02 
512	 2,11908398537026E-02 
513	 2,11232006763804E-02 
514	 2,15965536256446E-02 
515	 0,022767925683682 
516	 2,22278226271367E-02 
517	 2,11928619577143E-02 
518	 2,16853310305987E-02 
519	 2,12949689065168E-02 
520	 2,03191273463318E-02 
521	 2,24096108568916E-02 
522	 2,31827843196634E-02 
523	 1,99342108219603E-02 
524	 1,96699400078643E-02 
525	 2,17269031030566E-02 
526	 2,22762697227646E-02 
527	 2,16375370523161E-02 
528	 2,02872772695302E-02 
529	 2,08151928818985E-02 
530	 2,19581515159778E-02 
531	 2,20562881182611E-02 
532	 2,12656584086231E-02 
533	 2,02028388871331E-02 
534	 2,05934004679233E-02 
535	 2,15063970242581E-02 
536	 2,22568271234178E-02 
537	 2,20438692169053E-02 
538	 2,15042461438153E-02 
539	 2,20835472584885E-02 
540	 2,19859574748686E-02 
541	 2,10562680313116E-02 
542	 2,12398799117809E-02 
543	 2,16745194122346E-02 
544	 2,14458095477041E-02 
545	 2,11542084082541E-02 
546	 2,09567975981167E-02 
547	 2,09612646958414E-02 
548	 2,08557296194634E-02 
549	 2,06750182923133E-02 
550	 2,18695136804619E-02 
551	 2,31706902628983E-02 
552	 2,23990798725754E-02 
553	 2,17751866777847E-02 
554	 2,17415794132403E-02 
555	 2,12835453952037E-02 
556	 0,020902055700678 
557	 2,10072157636428E-02 
558	 2,10651779002683E-02 
559	 2,11876263773169E-02 
560	 2,20944506748341E-02 
561	 2,21249033431146E-02 
562	 2,08827495521459E-02 
563	 2,04946948111998E-02 
564	 2,05613943342906E-02 
565	 2,02834939298348E-02 
566	 2,03028975539314E-02 
567	 2,07192742990388E-02 
568	 2,14067315183536E-02 
569	 2,18850642409222E-02 
570	 2,18357998990306E-02 
571	 2,17502321341738E-02 
572	 2,17052487873365E-02 
573	 2,15989157616504E-02 
574	 2,20375734851715E-02 
575	 2,29236996154039E-02 
576	 2,25960818327845E-02 
577	 2,18827203449285E-02 
578	 2,18417953913031E-02 
579	 2,22336608328332E-02 
580	 2,28423732421906E-02 
581	 2,32266814956558E-02 
582	 2,31630104672417E-02 
583	 2,26575933251012E-02 
584	 2,29179431837697E-02 
585	 0,023490295349301 
586	 2,32843290979009E-02 
587	 2,31218806354593E-02 
588	 2,32329308176674E-02 
589	 2,34717621597239E-02 
590	 2,37420760537957E-02 
591	 2,39603731951303E-02 
592	 2,42628475571674E-02 
593	 2,45350454790917E-02 
594	 0,024402307293749 
595	 2,42408106487317E-02 
596	 2,42411870663427E-02 
597	 2,43461813764242E-02 
598	 2,45080492694548E-02 
599	 2,46791700098645E-02 
600	 2,45052063325283E-02 
601	 2,40329043672726E-02 
602	 2,38108186638877E-02 
603	 2,37991517931191E-02 
604	 2,39721913031335E-02 
605	 2,46005030971007E-02 
606	 2,52014903942093E-02 
607	 2,45671467277212E-02 
608	 0,023685973646551 
609	 2,30812841297773E-02 
610	 2,32865890487466E-02 
611	 2,37198295201898E-02 
612	 2,36124192973482E-02 
613	 2,30779530105155E-02 
614	 2,24596248541851E-02 
615	 2,28167670126387E-02 
616	 2,31896250908019E-02 
617	 2,29706444700341E-02 
618	 0,022584835752628 
619	 2,24297364887304E-02 
620	 2,32156407115321E-02 
621	 2,35868696520746E-02 
622	 2,32840429390808E-02 
623	 2,35267774620091E-02 
624	 2,37386342786562E-02 
625	 2,32923225101497E-02 
626	 2,31490509361138E-02 
627	 2,33860273417244E-02 
628	 2,36810201731887E-02 
629	 2,35704934065607E-02 
630	 0,022907585318981 
631	 2,25347166842405E-02 
632	 2,26928056857751E-02 
633	 2,36038431666327E-02 
634	 2,41504597714941E-02 
635	 2,41825139385128E-02 
636	 2,48086318408369E-02 
637	 2,49979016634847E-02 
638	 0,024011368083751 
639	 2,43505712128865E-02 
640	 2,56294681853448E-02 
641	 2,57415103377448E-02 
642	 2,54836184330577E-02 
643	 2,52193128178917E-02 
644	 0,025311387828615 
645	 2,57083750996091E-02 
646	 2,62869437460421E-02 
647	 2,62438144703389E-02 
648	 2,55988309824375E-02 
649	 2,51021625100325E-02 
650	 2,51976088756993E-02 
651	 2,60172268241387E-02 
652	 2,58183563231759E-02 
653	 2,50426226483568E-02 
654	 2,51468573429234E-02 
655	 2,52841210653035E-02 
656	 2,51851718725766E-02 
657	 2,48933586693807E-02 
658	 2,45506670678422E-02 
659	 2,42995223180608E-02 
660	 2,39218512543566E-02 
661	 2,34951558531509E-02 
662	 2,34160464011568E-02 
663	 2,30475284327388E-02 
664	 2,22569280323284E-02 
665	 2,25549679639119E-02 
666	 2,32233104131741E-02 
667	 2,28862781441804E-02 
668	 2,26073506352826E-02 
669	 2,25553418430778E-02 
670	 2,21981390318371E-02 
671	 2,17753076157865E-02 
672	 2,15335168487092E-02 
673	 2,19292901861772E-02 
674	 0,022633603395329 
675	 2,27365029454542E-02 
676	 2,25721441912973E-02 
677	 2,23277930685685E-02 
678	 2,23928550509646E-02 
679	 2,26292087945061E-02 
680	 2,28270617108823E-02 
681	 2,30471894300564E-02 
682	 2,32211376685727E-02 
683	 2,30962101038175E-02 
684	 2,30739089700581E-02 
685	 2,33846204861588E-02 
686	 2,37955873572992E-02 
687	 2,41368641007888E-02 
688	 2,41349285201942E-02 
689	 2,45565896636871E-02 
690	 2,54857064402328E-02 
691	 2,61250691973334E-02 
692	 2,67984505512715E-02 
693	 2,78272951410803E-02 
694	 2,90970988137241E-02 
695	 3,06486941881832E-02 
696	 3,26556025520809E-02 
697	 0,034710525117117 
698	 0,036713821585851 
699	 3,91854080825336E-02 
700	 4,20198304480456E-02 
701	 4,50222846989425E-02 
702	 4,80101113596602E-02 
703	 5,10962927685351E-02 
704	 5,49920192173707E-02 
705	 5,85150779166753E-02 
706	 6,10092890083795E-02 
707	 6,38003767307651E-02 
708	 6,69385512835119E-02 
709	 7,01482848081965E-02 
710	 7,31663387514103E-02 
711	 7,59255973660588E-02 
712	 7,86465618052156E-02 
713	 8,12566713144121E-02 
714	 8,36652272305421E-02 
715	 8,56296003369527E-02 
716	 8,73390754861174E-02 
717	 8,93781876805652E-02 
718	 9,14557303181686E-02 
719	 9,33272035139759E-02 
720	 9,42424708179783E-02 
721	 9,51245960781786E-02 
722	 9,72162185069195E-02 
723	 9,88372548368528E-02 
724	 9,97531198451925E-02 
725	 0,100664627968943 
726	 0,101541124618341 
727	 0,102376141199172 
728	 0,103147643181827 
729	 0,103876291868529 
730	 0,10460181148924 
731	 0,105310205924335 
732	 0,1059965366827 
733	 0,106689554287937 
734	 0,107258113139908 
735	 0,107592604180899 
736	 0,107743802807968 
737	 0,107981007271948 
738	 0,10900041965673 
739	 0,109643716613506 
740	 0,1095859821122 
741	 0,109766366439446 
742	 0,110156233160361 
743	 0,110625591679044 
744	 0,11095698598214 
745	 0,11116999563869 
746	 0,11153780038556 
747	 0,111791379828531 
748	 0,111847161118042 
749	 0,112237896896099 
750	 0,112586611421236 
751	 0,112203793596002 
752	 0,112346081370812 
753	 0,113144280701777 
754	 0,113692686941938 
755	 0,114074053403697 
756	 0,114332427028255 
757	 0,114233874813975 
758	 0,114108105520159 
759	 0,114690124640212 
760	 0,115096474829894 
761	 0,115156341300732 
762	 0,115563643392542 
763	 0,115979496965917 
764	 0,116078467140346 
765	 0,116371979031943 
766	 0,116744959582442 
767	 0,116602525195582 
768	 0,116652410628508 
769	 0,117099422023216 
770	 0,117320716946182 
771	 0,117511033834222 
772	 0,117951921956 
773	 0,118350202238736 
774	 0,118651057722921 
775	 0,118971305986622 
776	 0,118965843661686 
777	 0,118562202850133 
778	 0,118540384942789 
779	 0,118823695657716 
780	 0,119156286585872 
781	 0,119470339967951 
782	 0,11969129567628 
783	 0,119678742021065 
784	 0,119784795767643 
785	 0,12017419336116 
786	 0,120078785723686 
787	 0,119898214997848 
788	 0,120541559760809 
789	 0,121005763243448 
790	 0,121093386537029 
791	 0,121408479915694 
792	 0,121491082549569 
793	 0,121066224255559 
794	 0,121387129153458 
795	 0,122110611706449 
796	 0,122035775816149 
797	 0,122048888482609 
798	 0,122373930844695 
799	 0,122653481153436 
800	 0,122812951813163 
801	 0,122826116130895 
802	 0,123140413322516 
803	 0,123620528806098 
804	 0,123710781194406 
805	 0,123743091781011 
806	 0,123827934319671 
807	 0,123858627036981 
808	 0,124026718903935 
809	 0,124510617068752 
810	 0,124624374661563 
811	 0,124545364518487 
812	 0,125207144835744 
813	 0,12575819911501 
814	 0,125890643008499 
815	 0,126155039592967 
816	 0,126323199494155 
817	 0,126094254025412 
818	 0,126178229441674 
819	 0,126616862059484 
820	 0,127040803544728 
821	 0,1272906037218 
822	 0,127341006502811 
823	 0,127669537084683 
824	 0,128087364549298 
825	 0,128293051461334 
826	 0,128543960091281 
827	 0,128837733028074 
828	 0,128970679539187 
829	 0,129152234203916 
830	 0,129431354445671 
831	 0,129355885811296 
832	 0,129171465358834 
833	 0,129268972434446 
834	 0,130118833682625 
835	 0,131277370099498 
836	 0,130950722878359 
837	 0,130557157932418 
838	 0,130846011125035 
839	 0,131139639735444 
840	 0,131469431589801 
841	 0,131974974811568 
842	 0,131838867972356 
843	 0,13133511534013 
844	 0,132064728309982 
845	 0,132850781646305 
846	 0,132996485537572 
847	 0,132546329048266 
848	 0,132146698603263 
849	 0,132675738389506 
850	 0,133106975094802 
851	 0,133262085202364 
852	 0,133526882094853 
853	 0,133530956451454 
854	 0,133207666403631 
855	 0,13353458512895 
856	 0,133971408500934 
857	 0,133647531820798 
858	 0,133608471101387 
859	 0,13399253402723 
860	 0,134448773845276 
861	 0,134553396137267 
862	 0,134186265985566 
863	 0,134178004136021 
864	 0,134555183046155 
865	 0,135208965453424 
866	 0,135460541617069 
867	 0,135436075876313 
868	 0,136222711917622 
869	 0,136273574337361 
870	 0,135205456612505 
871	 0,135443457194657 
872	 0,136383229962086 
873	 0,137013949735699 
874	 0,137655717416384 
875	 0,138195250515571 
876	 0,138166941285234 
877	 0,138400524638265 
878	 0,139102612843289 
879	 0,139209726044946 
880	 0,139181711929649 
881	 0,139577045238209 
882	 0,139777224898684 
883	 0,139833966676644 
884	 0,140145514459661 
885	 0,140764917724689 
886	 0,141597930389711 
887	 0,142073597877366 
888	 0,142289585701899 
889	 0,142371717662194 
890	 0,142220096805848 
891	 0,141957558387778 
892	 0,141785311106527 
893	 0,142156146164991 
894	 0,143102680160963 
895	 0,144224797793804 
896	 0,144344547705576 
897	 0,142825700647288 
898	 0,142565871116217 
899	 0,143422359999668 
900	 0,1443131526039 
901	 0,144353955813479 
902	 0,143636634308276 
903	 0,14372139794562 
904	 0,144008311716007 
905	 0,144145305055874 
906	 0,144457027381364 
907	 0,144880623080001 
908	 0,145282714202584 
909	 0,145053889784522 
910	 0,144612363850792 
911	 0,145853465375764 
912	 0,14645886364022 
913	 0,14561512499716 
914	 0,145490832118649 
915	 0,14614695470032 
916	 0,147342321794465 
917	 0,147487684462686 
918	 0,146909216878318 
919	 0,147371183095227 
920	 0,147662694629602 
921	 0,147361199764095 
922	 0,146418332122168 
923	 0,1457810054144 
924	 0,146262604182687 
925	 0,147804941298371 
926	 0,1490319501743 
927	 0,147547924676858 
928	 0,14722690732199 
929	 0,148482034703329 
930	 0,148379064744873 
931	 0,148167538180846 
932	 0,148587779412046 
933	 0,149446576348979 
934	 0,150001623887929 
935	 0,149405273760296 
936	 0,150088702225849 
937	 0,15154759073085 
938	 0,15083505037294 
939	 0,149869505161933 
940	 0,149449650133069 
941	 0,149620692395107 
942	 0,1497754871796 
943	 0,149447803284415 
944	 0,149798860765105 
945	 0,15044049485454 
946	 0,150299736024354 
947	 0,150593865914471 
948	 0,151059621527055 
949	 0,149388433612301 
950	 0,148215126647264 
951	 0,148901481499381 
952	 0,149634869246168 
953	 0,149302856918932 
954	 0,146993479228946 
955	 0,146704499403964 
956	 0,148157196371395 
957	 0,148459050768697 
958	 0,147482250159956 
959	 0,145768721884916 
960	 0,146233442950854 
961	 0,147674879712227 
962	 0,148854334666654 
963	 0,148396802357465 
964	 0,147299750444488 
965	 0,147390246068458 
966	 0,147149483239155 
967	 0,14660777163302 
968	 0,146987646785902 
969	 0,147246055607991 
970	 0,146993341132587 
971	 0,146871802138703 
972	 0,146239135336601 
973	 0,144737809744639 
974	 0,145259085231711 
975	 0,146937356642478 
976	 0,147336314593861 
977	 0,147857304766655 
978	 0,148634522588743 
979	 0,14887557388056 
980	 0,149373853264214 
981	 0,150488696914869 
982	 0,1519937577794 
983	 0,15244846719514 
984	 0,150742308673879 
985	 0,150679790514948 
986	 0,152485951747149 
987	 0,15526128560247 
988	 0,154582126237318 
989	 0,151075400807331 
990	 0,152311632311685 
991	 0,152881227924429 
992	 0,150694566014742 
993	 0,151045572766179 
994	 0,153376583184694 
995	 0,156260039634418 
996	 0,155013344908156 
997	 0,152098983825829 
998	 0,154023648557594 
999	 0,15619631657118 
1000	 0,157581261337846 
1001	 0,159443939614872 
1002	 0,159900026815366 
1003	 0,158533089792063 
1004	 0,158626167718094 
1005	 0,159329031521718 
1006	 0,159614297595708 
1007	 0,160436766800034 
1008	 0,162136210579434 
1009	 0,16512510500084 
1010	 0,164059189891915 
1011	 0,159553971671441 
1012	 0,158119181913192 
1013	 0,159628337560133 
1014	 0,163130174776722 
1015	 0,163567296870216 
1016	 0,163251543119733 
1017	 0,164201854922829 
1018	 0,163990241888826 
1019	 0,163303794466463 
1020	 0,163613254993914 
1021	 0,165167647895764 
1022	 0,166963096165467 
1023	 0,166133587989413 
1024	 0,165414551745889 
1025	 0,165864122060539 
1026	 0,167796563130972 
1027	 0,16793113200099 
1028	 0,165371119403372 
1029	 0,16988599554928 
1030	 0,175607337136444 
1031	 0,174678235844758 
1032	 0,169358725530808 
1033	 0,164715303611079 
1034	 0,169686089318548 
1035	 0,17586383344923 
1036	 0,179719838364471 
1037	 0,178233323809228 
1038	 0,177320233228883 
1039	 0,178964411855682 
1040	 0,178340818839585 
1041	 0,17323650534503 
1042	 0,164275528024714 
1043	 0,168667516555375 
1044	 0,176549252122756 
1045	 0,171719995968075 
1046	 0,170889782005752 
1047	 0,176481039681108 
1048	 0,185744129343489 
1049	 0,185309430752066 
1050	 0,176559771025051 
1051	 0,183367792375678 
1052	 0,186636304459121 
1053	 0,178855073719027 
1054	 0,174104525290416 
1055	 0,175937719663611 
1056	 0,184699860362118 
1057	 0,185958130189566 
1058	 0,182437798558791 
1059	 0,181350591567155 
1060	 0,187802674793512 
1061	 0,19366078324346 
1062	 0,177789410648014 
1063	 0,176257065001791 
1064	 0,191100653844812 
1065	 0,186207576962143 
1066	 0,187623372942695 
1067	 0,198131426507711 
1068	 0,167199638293739 
1069	 0,15108169655565 
1070	 0,18819526383942 
1071	 0,200873728104147 
1072	 0,19410853079037 
1073	 0,184663537998631 
1074	 0,189862051811989 
1075	 0,201402642952151 
