Wavelength	SCORFF200149.asd
325	 0,543263157518045 
326	 0,515003939209108 
327	 0,447006404407792 
328	 0,353614029723126 
329	 0,420875176551385 
330	 0,465586528971967 
331	 0,360812695540729 
332	 0,314637661556257 
333	 0,345246768779822 
334	 0,415211610695824 
335	 0,448081956213591 
336	 0,415752305779628 
337	 0,412259396667298 
338	 0,398767280235434 
339	 0,341961052163416 
340	 0,323081488747672 
341	 0,326963497265704 
342	 0,285002117286999 
343	 0,30673622811066 
344	 0,379366858793434 
345	 0,333079351380814 
346	 0,288825598555171 
347	 0,365885360207202 
348	 0,392867363808111 
349	 0,369424531555351 
350	 0,367624613781037 
351	 0,359120839444883 
352	 0,343305159870765 
353	 0,360352811092052 
354	 0,380920638249185 
355	 0,368874795192813 
356	 0,351888401789868 
357	 0,345356898443656 
358	 0,364900559700185 
359	 0,374974805744657 
360	 0,363474856656983 
361	 0,361187091741262 
362	 0,368618778900788 
363	 0,379652557718425 
364	 0,385147219323876 
365	 0,387761698592773 
366	 0,403497652657111 
367	 0,414661854774024 
368	 0,409879877487341 
369	 0,385266363645608 
370	 0,357565360279243 
371	 0,360276033045358 
372	 0,376799325545652 
373	 0,398225081489783 
374	 0,411375907343873 
375	 0,406660184735051 
376	 0,38235323503739 
377	 0,390446232490126 
378	 0,418054605659216 
379	 0,423870867934491 
380	 0,415559094937896 
381	 0,40176363694275 
382	 0,419505975915701 
383	 0,438170477016265 
384	 0,430463603652429 
385	 0,416206480866535 
386	 0,407400766902467 
387	 0,427139373122969 
388	 0,429384919930163 
389	 0,402798607807038 
390	 0,390524264955086 
391	 0,391374963531201 
392	 0,400477739908355 
393	 0,404821812204244 
394	 0,402849444052246 
395	 0,39917347281843 
396	 0,400043899792727 
397	 0,407318496528751 
398	 0,409499425470584 
399	 0,409386039342643 
400	 0,413652120666416 
401	 0,412097715218958 
402	 0,40570107283864 
403	 0,406178209245144 
404	 0,411728229222945 
405	 0,419509755794927 
406	 0,418406475736509 
407	 0,413333410893953 
408	 0,417220649689642 
409	 0,420936899725315 
410	 0,422459458180179 
411	 0,427125376566944 
412	 0,425463092279585 
413	 0,409945733051556 
414	 0,407996029273423 
415	 0,41768429518046 
416	 0,422424374049828 
417	 0,421195869600605 
418	 0,414963377022348 
419	 0,414474649391019 
420	 0,417226834228571 
421	 0,418769394823551 
422	 0,418928826961068 
423	 0,418168500311516 
424	 0,418336079277147 
425	 0,419315627257382 
426	 0,420762560966238 
427	 0,420295788999206 
428	 0,418755854778902 
429	 0,418104911372826 
430	 0,418002620239081 
431	 0,41873748800173 
432	 0,421958371969372 
433	 0,424147030042594 
434	 0,42235333828576 
435	 0,42029456636545 
436	 0,419321688539464 
437	 0,420835266791709 
438	 0,42245308569509 
439	 0,42319429328853 
440	 0,423961118200468 
441	 0,424884728201321 
442	 0,426056962642499 
443	 0,425052041165785 
444	 0,422390221901697 
445	 0,421696212173205 
446	 0,421115547366091 
447	 0,419841303585285 
448	 0,42099793458324 
449	 0,423735684516786 
450	 0,425945836803091 
451	 0,42634149573638 
452	 0,425354325266192 
453	 0,427502636677912 
454	 0,429015836183744 
455	 0,426550491918313 
456	 0,426588856521188 
457	 0,428365362770457 
458	 0,425774670843058 
459	 0,426547776344927 
460	 0,432242086705109 
461	 0,431207176669844 
462	 0,427198735476649 
463	 0,426609190208858 
464	 0,428153172941067 
465	 0,430599564961224 
466	 0,430157600224268 
467	 0,43088202302932 
468	 0,434947921995805 
469	 0,436747645561218 
470	 0,435969477993896 
471	 0,433379665399694 
472	 0,432273458035879 
473	 0,433378875421056 
474	 0,433719357973413 
475	 0,433673680749204 
476	 0,43376551791899 
477	 0,433767085914582 
478	 0,433450096040561 
479	 0,432038014597994 
480	 0,431775947929815 
481	 0,433317696320484 
482	 0,43285485696622 
483	 0,432608669938874 
484	 0,436530205036101 
485	 0,437400780234706 
486	 0,434837707826784 
487	 0,435271929634275 
488	 0,435973717822515 
489	 0,434991526194393 
490	 0,435400620633234 
491	 0,436491145764716 
492	 0,435622132492727 
493	 0,434377582720176 
494	 0,433465689768872 
495	 0,433416665560164 
496	 0,433863885167833 
497	 0,434337410409591 
498	 0,435401530070136 
499	 0,436816244758742 
500	 0,43789366593413 
501	 0,437455606937456 
502	 0,435416852834151 
503	 0,436734614095944 
504	 0,439572664037993 
505	 0,439564323502392 
506	 0,440327812581412 
507	 0,442239777593823 
508	 0,442479521778057 
509	 0,441895778488142 
510	 0,4413717184261 
511	 0,440419192136135 
512	 0,43973484866116 
513	 0,441356925110903 
514	 0,442366271221805 
515	 0,441689622453541 
516	 0,441484679413657 
517	 0,441656453485762 
518	 0,441739833313351 
519	 0,442275395332534 
520	 0,44327074675018 
521	 0,444356762382118 
522	 0,44517699299533 
523	 0,445465265201389 
524	 0,445106189892264 
525	 0,444763251037593 
526	 0,446087437412526 
527	 0,446431229739447 
528	 0,445267005729377 
529	 0,445154039192325 
530	 0,445497162793146 
531	 0,445396738705797 
532	 0,44473190785272 
533	 0,443790738102806 
534	 0,443452760262511 
535	 0,44373296218827 
536	 0,444521231296499 
537	 0,44483645939633 
538	 0,444739459221278 
539	 0,444590359155428 
540	 0,44470114730038 
541	 0,445156422523108 
542	 0,445735959672403 
543	 0,446215530209145 
544	 0,446401968515369 
545	 0,44653222119366 
546	 0,446728268146504 
547	 0,447182205451579 
548	 0,447583105515545 
549	 0,447774144965593 
550	 0,447829641422081 
551	 0,447969050373381 
552	 0,448522543981709 
553	 0,448905801470905 
554	 0,448950584865899 
555	 0,448752066860106 
556	 0,448588840597567 
557	 0,448643276560481 
558	 0,448088879713729 
559	 0,447326355286366 
560	 0,447792260795476 
561	 0,447814108455936 
562	 0,446981480988899 
563	 0,447145684546531 
564	 0,447832717428754 
565	 0,448201929357395 
566	 0,448464521873636 
567	 0,448705795370528 
568	 0,449056504361063 
569	 0,449735932474972 
570	 0,450821369213403 
571	 0,451471653548307 
572	 0,451900088950199 
573	 0,452921108647666 
574	 0,453659455355153 
575	 0,453979763295072 
576	 0,454881707408269 
577	 0,455864238382381 
578	 0,456303390171041 
579	 0,456574487095542 
580	 0,456963784001792 
581	 0,458068593959873 
582	 0,459177057924783 
583	 0,45987027106053 
584	 0,460362867666217 
585	 0,460937257660692 
586	 0,462078178786042 
587	 0,462708349751161 
588	 0,46287303605441 
589	 0,464375056318125 
590	 0,465887549007673 
591	 0,466162899066906 
592	 0,466791034372282 
593	 0,467721766669842 
594	 0,467950013547919 
595	 0,468092255501287 
596	 0,468391695802631 
597	 0,46833957872133 
598	 0,46858549293832 
599	 0,470206998329224 
600	 0,470528025632453 
601	 0,469295308132769 
602	 0,468639298713369 
603	 0,468538806067116 
604	 0,468872732238866 
605	 0,468738134743846 
606	 0,468185407417106 
607	 0,467769562537253 
608	 0,467328859773512 
609	 0,466864037169132 
610	 0,466607952003922 
611	 0,466272391445628 
612	 0,465487626044203 
613	 0,465075753879732 
614	 0,465173518450411 
615	 0,465558960891516 
616	 0,465687957070508 
617	 0,46524344859524 
618	 0,464787856177359 
619	 0,464612577962366 
620	 0,465126397667442 
621	 0,465526389054684 
622	 0,465522436104762 
623	 0,465277839785292 
624	 0,464865758228621 
625	 0,464382447414776 
626	 0,464520907370201 
627	 0,465080555930071 
628	 0,46505000686429 
629	 0,464860929840653 
630	 0,464803904885817 
631	 0,465340587720153 
632	 0,466034918995955 
633	 0,466069700658613 
634	 0,466604342259364 
635	 0,467690950196248 
636	 0,468047521055151 
637	 0,468516759199817 
638	 0,469757394151107 
639	 0,47023471976522 
640	 0,470273602598488 
641	 0,471448711093041 
642	 0,472459395423984 
643	 0,472879499422697 
644	 0,473534834455409 
645	 0,474170838528614 
646	 0,474377072776594 
647	 0,474092211809016 
648	 0,473425408169447 
649	 0,47280288052253 
650	 0,472085958421832 
651	 0,471232276438386 
652	 0,470679389480148 
653	 0,470278067634027 
654	 0,469606457652979 
655	 0,468875729866506 
656	 0,468140881433726 
657	 0,467366424166208 
658	 0,466557109425171 
659	 0,465723148267221 
660	 0,464988809295164 
661	 0,464239559155086 
662	 0,46307438156826 
663	 0,461825524441584 
664	 0,460742631967887 
665	 0,460220921922627 
666	 0,459935630818631 
667	 0,459311821010682 
668	 0,458753770926791 
669	 0,45830173592655 
670	 0,457653801856183 
671	 0,457135686475736 
672	 0,456994279558015 
673	 0,456849213532728 
674	 0,456740978277376 
675	 0,456980489235614 
676	 0,457056087177662 
677	 0,4568696626029 
678	 0,456996801853941 
679	 0,457437355767672 
680	 0,458124678117635 
681	 0,458645069466664 
682	 0,459047333346762 
683	 0,459829119555782 
684	 0,460802368906347 
685	 0,461847835709111 
686	 0,462876920015197 
687	 0,46413709361372 
688	 0,466091376603738 
689	 0,468056485220901 
690	 0,470086924377461 
691	 0,473233585591038 
692	 0,477228817644153 
693	 0,4817497199948 
694	 0,486262272489418 
695	 0,490865037750281 
696	 0,496103779069073 
697	 0,501877272938019 
698	 0,508153908946847 
699	 0,514920396749079 
700	 0,521861381498832 
701	 0,528610317743367 
702	 0,535234470511361 
703	 0,541795224981251 
704	 0,548591503758215 
705	 0,55502452607893 
706	 0,560739635171613 
707	 0,566225240692828 
708	 0,571685507037039 
709	 0,577368131697382 
710	 0,582488101236645 
711	 0,586869736364279 
712	 0,590914346547759 
713	 0,594921093859892 
714	 0,599125459580855 
715	 0,603145829699346 
716	 0,606724542257438 
717	 0,60945040436674 
718	 0,611847544004893 
719	 0,614131470294719 
720	 0,61596590496139 
721	 0,617827514362981 
722	 0,620340938467246 
723	 0,622393548406778 
724	 0,623832628519231 
725	 0,625130011713711 
726	 0,626430953086003 
727	 0,627808011581194 
728	 0,629007412425749 
729	 0,6298945094384 
730	 0,630276263108484 
731	 0,630829586619502 
732	 0,631653987273225 
733	 0,632084211669125 
734	 0,632617636312629 
735	 0,63362443576722 
736	 0,633748883711192 
737	 0,633517794543677 
738	 0,634957829970459 
739	 0,635894455874435 
740	 0,635655091489128 
741	 0,635475760187025 
742	 0,635585877114782 
743	 0,63611494700001 
744	 0,636464896753603 
745	 0,636497456782233 
746	 0,636232352494097 
747	 0,63621709270957 
748	 0,636672029242454 
749	 0,636779510044655 
750	 0,636731025083346 
751	 0,636983563005939 
752	 0,636998168093022 
753	 0,636850589577687 
754	 0,637416304190573 
755	 0,637845605696602 
756	 0,637576117096978 
757	 0,63747298099865 
758	 0,637861107810278 
759	 0,639180959462208 
760	 0,639971646691794 
761	 0,639875627546194 
762	 0,639855632271147 
763	 0,640056341261913 
764	 0,640544041589935 
765	 0,640873585964983 
766	 0,641031779804639 
767	 0,641235735974745 
768	 0,641430021270647 
769	 0,641622152419976 
770	 0,641989305316576 
771	 0,642184537784023 
772	 0,641802381678549 
773	 0,641371192066329 
774	 0,641135794520376 
775	 0,641463162052264 
776	 0,641476775061358 
777	 0,640832595217006 
778	 0,640651011375587 
779	 0,640737801448025 
780	 0,640626419689432 
781	 0,640230860002828 
782	 0,639695394209043 
783	 0,639650572584986 
784	 0,639632109406933 
785	 0,639353369831283 
786	 0,639153096458831 
787	 0,639067399423157 
788	 0,639086915433075 
789	 0,638977240264952 
790	 0,638783912133702 
791	 0,63900643504972 
792	 0,639340178334378 
793	 0,639526007793083 
794	 0,639664777537164 
795	 0,639770465632293 
796	 0,639845025607308 
797	 0,639931320839309 
798	 0,640075203793345 
799	 0,64041047941426 
800	 0,640685125793411 
801	 0,640661167544372 
802	 0,640466634918787 
803	 0,640232835063046 
804	 0,64015769446388 
805	 0,64036883521614 
806	 0,640825549288899 
807	 0,641032200372317 
808	 0,641034494052406 
809	 0,640929441996798 
810	 0,640765445316915 
811	 0,640592597481415 
812	 0,640515539683966 
813	 0,640237805671417 
814	 0,639783331829832 
815	 0,640079523079935 
816	 0,640479286702521 
817	 0,640148807475854 
818	 0,640147131071212 
819	 0,640451253120779 
820	 0,640257101383178 
821	 0,640078816529076 
822	 0,640153124316118 
823	 0,640366703240511 
824	 0,640450585709107 
825	 0,640092493675153 
826	 0,640326656880382 
827	 0,641103940513945 
828	 0,641449474968985 
829	 0,641686637913132 
830	 0,641973015844347 
831	 0,642311033375145 
832	 0,642577375765994 
833	 0,64260618731555 
834	 0,642843128008442 
835	 0,643243994276854 
836	 0,643253527333665 
837	 0,643363213984742 
838	 0,643808429311041 
839	 0,644313171656734 
840	 0,644467733122424 
841	 0,643771595426913 
842	 0,64328575190989 
843	 0,64318098855777 
844	 0,642982033539415 
845	 0,64283375836501 
846	 0,642768343248546 
847	 0,642569652283275 
848	 0,642073308683896 
849	 0,641095133175429 
850	 0,64115550877002 
851	 0,641942644154181 
852	 0,641139355108294 
853	 0,640060971884226 
854	 0,63946527020525 
855	 0,639264100534764 
856	 0,639242068492948 
857	 0,639102707634038 
858	 0,639110799922876 
859	 0,639130240550852 
860	 0,638523629300809 
861	 0,638099292338791 
862	 0,638224122341095 
863	 0,638215686180189 
864	 0,638246666210078 
865	 0,638622148292551 
866	 0,638879998532015 
867	 0,63905407502891 
868	 0,639657361012208 
869	 0,63999809953659 
870	 0,639857036978803 
871	 0,640094185615134 
872	 0,640444617708941 
873	 0,640517038296478 
874	 0,641198793210534 
875	 0,642335661619402 
876	 0,642970105671448 
877	 0,643462430458499 
878	 0,643863180045189 
879	 0,643656847340684 
880	 0,643558433749036 
881	 0,644314438319029 
882	 0,644713727930196 
883	 0,644701758199462 
884	 0,644782802157513 
885	 0,645035566664293 
886	 0,645381683609739 
887	 0,64511444908013 
888	 0,644960475842169 
889	 0,645543777116335 
890	 0,645439975490796 
891	 0,644762438961349 
892	 0,644308580244941 
893	 0,644041442910807 
894	 0,643960736437004 
895	 0,644029005598625 
896	 0,643711654805931 
897	 0,64270097100464 
898	 0,642159254579383 
899	 0,642102116610969 
900	 0,642212592760484 
901	 0,642142482618122 
902	 0,641701577522473 
903	 0,640682737248241 
904	 0,639859589700728 
905	 0,639706811951285 
906	 0,639748901553646 
907	 0,639914090448033 
908	 0,640185845857618 
909	 0,639782186619782 
910	 0,638954522434145 
911	 0,63922729484018 
912	 0,638865417818589 
913	 0,63754212590986 
914	 0,638410252220156 
915	 0,639915776519963 
916	 0,640044484050904 
917	 0,639435780825047 
918	 0,63880598862376 
919	 0,639828924320761 
920	 0,639667069528173 
921	 0,638057221072716 
922	 0,638753483763822 
923	 0,639847833822539 
924	 0,639733654787686 
925	 0,640468125095924 
926	 0,641359613739038 
927	 0,640671573679127 
928	 0,639564343358158 
929	 0,638963985124045 
930	 0,640921255106351 
931	 0,642494284519109 
932	 0,642076574185851 
933	 0,641891918963725 
934	 0,641720866360176 
935	 0,641018165398428 
936	 0,641267478158985 
937	 0,642190968678928 
938	 0,642077621034559 
939	 0,641850351146016 
940	 0,641925239694162 
941	 0,642752324274832 
942	 0,642878770788707 
943	 0,641252818771606 
944	 0,641050143858881 
945	 0,641747896552721 
946	 0,641419256773181 
947	 0,640076873809188 
948	 0,63823690166468 
949	 0,637651321783176 
950	 0,63812403389042 
951	 0,639045339321172 
952	 0,6372492824702 
953	 0,635389577584157 
954	 0,636849067350912 
955	 0,636751689260807 
956	 0,635132853864237 
957	 0,634859725308151 
958	 0,634117814853622 
959	 0,632766415758517 
960	 0,63286433354134 
961	 0,632855213081273 
962	 0,631666751991476 
963	 0,631243203315533 
964	 0,631093702147549 
965	 0,630082431896009 
966	 0,629318841373268 
967	 0,629216440136584 
968	 0,630293668729657 
969	 0,630501964754199 
970	 0,629158183944384 
971	 0,627952593860058 
972	 0,627178062172695 
973	 0,627096560166782 
974	 0,628889051136197 
975	 0,630785449153092 
976	 0,629385943426471 
977	 0,629117857410824 
978	 0,630310496601595 
979	 0,629413527205415 
980	 0,629526599466079 
981	 0,631714160258724 
982	 0,632905379541236 
983	 0,632489246133334 
984	 0,630395263167014 
985	 0,629792754943955 
986	 0,630678532787198 
987	 0,631727587780653 
988	 0,632647972587954 
989	 0,633173006972547 
990	 0,632842618974294 
991	 0,633563054631136 
992	 0,635574784503118 
993	 0,633713732063753 
994	 0,631704144306571 
995	 0,633588404854524 
996	 0,635201510954759 
997	 0,636291332739511 
998	 0,637993831082098 
999	 0,636775870193469 
1000	 0,633890710716994 
1001	 0,637677501779243 
1002	 0,639475803797959 
1003	 0,636182916531992 
1004	 0,637061770383777 
1005	 0,638996629724571 
1006	 0,638453902194208 
1007	 0,638702659218128 
1008	 0,639844785822577 
1009	 0,641242257938064 
1010	 0,638035882626318 
1011	 0,632267389141029 
1012	 0,634786956163931 
1013	 0,638196150783682 
1014	 0,639256337653517 
1015	 0,639763285051202 
1016	 0,63988421873637 
1017	 0,639592706451458 
1018	 0,637240459826701 
1019	 0,635855059002963 
1020	 0,639959077510846 
1021	 0,640159144403657 
1022	 0,637478686925311 
1023	 0,641841108898537 
1024	 0,642100516626669 
1025	 0,636938174748157 
1026	 0,6384120319282 
1027	 0,640717649563489 
1028	 0,639969892164349 
1029	 0,638778062043277 
1030	 0,638053656077145 
1031	 0,638493943922425 
1032	 0,638653036412124 
1033	 0,639728241563222 
1034	 0,644598808832971 
1035	 0,649173609953023 
1036	 0,650781875977832 
1037	 0,644388129601201 
1038	 0,642214547003882 
1039	 0,647044780106626 
1040	 0,640823640133031 
1041	 0,635127059445618 
1042	 0,639053602045145 
1043	 0,637501279046391 
1044	 0,634524046261183 
1045	 0,637978582170483 
1046	 0,636205486479685 
1047	 0,63270120967906 
1048	 0,641492765238665 
1049	 0,650836094544776 
1050	 0,655513282662833 
1051	 0,647868689236597 
1052	 0,642175669926048 
1053	 0,644638767755835 
1054	 0,645600599145626 
1055	 0,6444259438054 
1056	 0,642009067514482 
1057	 0,64638678172732 
1058	 0,651214810141358 
1059	 0,646121168290558 
1060	 0,644344599584648 
1061	 0,645140904590424 
1062	 0,640238641316968 
1063	 0,635971563027071 
1064	 0,635103586819364 
1065	 0,639560830540923 
1066	 0,646629454023928 
1067	 0,65241659521298 
1068	 0,646744921851659 
1069	 0,637856923780084 
1070	 0,634189341951654 
1071	 0,636607850639457 
1072	 0,638346465215944 
1073	 0,632861116926157 
1074	 0,642309836929928 
1075	 0,654918386918109 
