Wavelength	SCORFF200798.asd
325	 0,134357520907812 
326	 0,209442030090475 
327	 0,154122117795041 
328	 2,96155359817437E-03 
329	 0,135959467689477 
330	 0,225756288218483 
331	 4,76032517873522E-02 
332	-1,99861006814397E-03 
333	 6,04003385990255E-02 
334	 5,35999851240284E-02 
335	 3,02559021004501E-02 
336	 2,08008066614624E-02 
337	 6,68917187517408E-02 
338	 4,49587357474436E-02 
339	-0,168399358281975 
340	-0,112404216601982 
341	 6,24554276050263E-02 
342	-4,21271320009967E-02 
343	-4,39533307988951E-02 
344	 9,80435271062152E-02 
345	 8,97529069767442E-02 
346	 2,61041117340056E-02 
347	 5,26358649382954E-03 
348	 1,88853670122214E-02 
349	 4,09132084147603E-02 
350	 7,30465696310911E-03 
351	 1,46433487532438E-02 
352	 7,58819368299034E-02 
353	 0,047123012428327 
354	-4,23606556373346E-03 
355	 6,55226209048362E-03 
356	 3,26896817801851E-02 
357	 5,48625656303239E-02 
358	 6,79682367118204E-02 
359	 6,12974705578405E-02 
360	 3,20997629391863E-02 
361	 2,40635044461012E-03 
362	-1,15688063155954E-02 
363	 6,56066093254866E-03 
364	 2,77595816781852E-02 
365	 3,98724300270195E-02 
366	 1,96945846677161E-02 
367	 1,21470696626755E-02 
368	 0,038446566105705 
369	 3,51804398889601E-02 
370	 1,75229364909171E-02 
371	 3,12580465547518E-02 
372	 2,61782258500192E-02 
373	 2,27352548874139E-03 
374	 2,04026688129214E-02 
375	 3,32188354230874E-02 
376	 1,07347126737459E-02 
377	 2,64020410232928E-02 
378	 5,93991099157232E-02 
379	 4,57508783936599E-02 
380	 2,63849907444266E-02 
381	 1,73610237995853E-02 
382	 3,13581348014332E-02 
383	 4,05521848707422E-02 
384	 2,18332041330991E-02 
385	 1,10160644332644E-02 
386	 1,30564570140819E-02 
387	 2,13590729111997E-02 
388	 3,38855524559213E-02 
389	 4,47565860242858E-02 
390	 3,69771832291679E-02 
391	 2,47294692474289E-02 
392	 2,70086839589731E-02 
393	 1,60611901713199E-02 
394	-1,53656066599996E-03 
395	 1,34166150178069E-02 
396	 2,53703784323759E-02 
397	 1,89067151612434E-02 
398	 1,55749055745159E-02 
399	 1,80038512190564E-02 
400	 2,67518105595709E-02 
401	 2,62511671490698E-02 
402	 1,67877466554338E-02 
403	 1,36712301127859E-02 
404	 0,02039836013647 
405	 0,035629420341633 
406	 2,66702320751889E-02 
407	 9,62033724062583E-03 
408	 2,73500907195571E-02 
409	 3,63619051512064E-02 
410	 2,89616684940457E-02 
411	 0,033724560806735 
412	 3,58294035729871E-02 
413	 2,17237438826968E-02 
414	 1,94179321955161E-02 
415	 2,69228805259183E-02 
416	 2,65538146504918E-02 
417	 2,41123502799796E-02 
418	 2,22174522908664E-02 
419	 2,29411097585026E-02 
420	 0,023915189201592 
421	 2,18329471491388E-02 
422	 0,0245708885519 
423	 3,07162793090081E-02 
424	 3,07515084380473E-02 
425	 2,77605067847337E-02 
426	 2,42136155912852E-02 
427	 2,47088556679355E-02 
428	 2,69692756257129E-02 
429	 2,55814407786682E-02 
430	 2,56591426882845E-02 
431	 2,80836100471401E-02 
432	 3,05494007611848E-02 
433	 3,09166889157423E-02 
434	 2,77853149293193E-02 
435	 2,77623665062786E-02 
436	 2,99892221344345E-02 
437	 2,90343414141072E-02 
438	 0,028606593073675 
439	 2,95920951428894E-02 
440	 0,028168763683443 
441	 2,62676726644595E-02 
442	 2,66662140380761E-02 
443	 2,71954875035444E-02 
444	 2,78271117455408E-02 
445	 3,07848764792666E-02 
446	 0,031317949951187 
447	 2,71547999933187E-02 
448	 2,57147905253216E-02 
449	 0,026579001266599 
450	 2,68349516338684E-02 
451	 2,79626467757046E-02 
452	 2,99096942103253E-02 
453	 3,11824154201269E-02 
454	 3,11378214071302E-02 
455	 2,93649038992997E-02 
456	 2,73800234100663E-02 
457	 2,63092349118525E-02 
458	 2,80144642751576E-02 
459	 3,00383999865607E-02 
460	 3,09900798569201E-02 
461	 2,96636683388773E-02 
462	 2,85172891250399E-02 
463	 3,09255159326322E-02 
464	 3,06745503087593E-02 
465	 2,74831792803037E-02 
466	 2,55349268763713E-02 
467	 2,63459635471544E-02 
468	 3,03947713679462E-02 
469	 3,27939611066942E-02 
470	 3,29767987511007E-02 
471	 3,14442755521048E-02 
472	 2,89633797686123E-02 
473	 2,70284883474448E-02 
474	 3,01415600906059E-02 
475	 0,034013331078757 
476	 3,42521677187984E-02 
477	 3,28080509725985E-02 
478	 3,06999198424254E-02 
479	 2,93384370611347E-02 
480	 2,90600593266002E-02 
481	 0,029951716382627 
482	 3,11497252060386E-02 
483	 3,19773172537834E-02 
484	 3,16986055943801E-02 
485	 3,09188706864409E-02 
486	 3,02608096590054E-02 
487	 3,08673939220708E-02 
488	 3,30164768828844E-02 
489	 3,63392746422401E-02 
490	 3,52280487982631E-02 
491	 3,14210075608839E-02 
492	 3,09032758306449E-02 
493	 3,03678554086231E-02 
494	 2,91467497823553E-02 
495	 2,90040887286405E-02 
496	 3,01950088680864E-02 
497	 3,28075436320906E-02 
498	 3,46293358897629E-02 
499	 3,50465064422087E-02 
500	 3,41412996342719E-02 
501	 3,28855361237946E-02 
502	 3,20395524906563E-02 
503	 3,23268073711473E-02 
504	 3,32764447797754E-02 
505	 3,39105711660912E-02 
506	 3,47916667185051E-02 
507	 3,55599000673954E-02 
508	 3,41064279000115E-02 
509	 3,27097543603031E-02 
510	 3,34369756450086E-02 
511	 3,47003461240214E-02 
512	 3,57985559989281E-02 
513	 3,59249408091148E-02 
514	 3,54090640050076E-02 
515	 3,45492463860357E-02 
516	 3,40520532925786E-02 
517	 3,41342822114735E-02 
518	 3,49531864268541E-02 
519	 3,59031656779323E-02 
520	 0,036692737494924 
521	 3,72022198197016E-02 
522	 3,69808399312992E-02 
523	 3,59388214569786E-02 
524	 3,66486436115576E-02 
525	 3,83961500077667E-02 
526	 3,88434345367995E-02 
527	 3,82690254548148E-02 
528	 3,70979854028497E-02 
529	 3,72814951631869E-02 
530	 0,038103306766491 
531	 3,85602563084859E-02 
532	 3,76521978484382E-02 
533	 3,61852759784314E-02 
534	 3,74665819385866E-02 
535	 3,86697812690714E-02 
536	 0,03822965475735 
537	 3,79764445216805E-02 
538	 0,038025329937984 
539	 3,80565085454327E-02 
540	 3,87722671448432E-02 
541	 4,00014164722862E-02 
542	 4,00805080952386E-02 
543	 0,039689267806105 
544	 3,95727509917453E-02 
545	 3,94199878188072E-02 
546	 3,93416428997357E-02 
547	 3,97664419556861E-02 
548	 4,01401575927558E-02 
549	 4,01801728210028E-02 
550	 3,99830623764695E-02 
551	 0,039964148273671 
552	 4,07626321625184E-02 
553	 4,11047275869861E-02 
554	 4,08467504451208E-02 
555	 4,10183587058367E-02 
556	 4,13429411048321E-02 
557	 4,15443118908917E-02 
558	 4,13277219600431E-02 
559	 4,10102286403333E-02 
560	 4,16104843881636E-02 
561	 4,17235458611806E-02 
562	 0,041014223197279 
563	 4,12163042006494E-02 
564	 4,16022223342966E-02 
565	 4,10089823919276E-02 
566	 4,12081655484177E-02 
567	 4,22158050389581E-02 
568	 4,24402140112483E-02 
569	 4,26361530797287E-02 
570	 0,043243018645308 
571	 4,31422552691169E-02 
572	 4,26611493962021E-02 
573	 4,27865709504398E-02 
574	 4,34526253878534E-02 
575	 4,44228825448587E-02 
576	 4,45526816677225E-02 
577	 4,41863193144604E-02 
578	 4,38344468502834E-02 
579	 4,43976100834834E-02 
580	 4,56281614696023E-02 
581	 0,046147871628432 
582	 4,60790647721067E-02 
583	 4,55870483508189E-02 
584	 4,55014021555848E-02 
585	 4,58272356147387E-02 
586	 4,64039509063068E-02 
587	 4,62663727870908E-02 
588	 4,55837671596341E-02 
589	 4,66160428551927E-02 
590	 4,77460626279321E-02 
591	 4,74243056410355E-02 
592	 4,70482521465913E-02 
593	 4,69224818496513E-02 
594	 4,70872290179369E-02 
595	 4,72475429964469E-02 
596	 4,73011259114333E-02 
597	 4,76389755433863E-02 
598	 4,80306708981604E-02 
599	 4,80912182101537E-02 
600	 4,79254356001221E-02 
601	 0,047654250295086 
602	 4,76226831716846E-02 
603	 4,75734773032948E-02 
604	 4,73462394287522E-02 
605	 4,76703113525133E-02 
606	 4,81558825217481E-02 
607	 4,75522651884807E-02 
608	 4,69613736915153E-02 
609	 0,046829315457988 
610	 4,70639930856535E-02 
611	 4,73912066984703E-02 
612	 4,74858705868375E-02 
613	 4,72684165729577E-02 
614	 0,046903211116085 
615	 4,69753674950231E-02 
616	 4,72169238755271E-02 
617	 4,74209682328944E-02 
618	 4,73248680674837E-02 
619	 4,72756187146352E-02 
620	 4,81114022911589E-02 
621	 4,83819055624652E-02 
622	 4,78386872660988E-02 
623	 4,78092497310352E-02 
624	 4,79775778222077E-02 
625	 4,79413697120411E-02 
626	 4,78232339773035E-02 
627	 4,77616597455593E-02 
628	 4,81089277122281E-02 
629	 4,84310645474829E-02 
630	 4,84878269342999E-02 
631	 4,83421267252659E-02 
632	 4,82027910851676E-02 
633	 4,83995412473445E-02 
634	 4,83536070838433E-02 
635	 4,81199409313373E-02 
636	 0,048624588116853 
637	 4,92866361362497E-02 
638	 4,95916573669333E-02 
639	 4,98334317443385E-02 
640	 5,00432802471168E-02 
641	 5,02166141318754E-02 
642	 5,01652814184059E-02 
643	 4,99291638433076E-02 
644	 5,01510617801265E-02 
645	 5,07149181601405E-02 
646	 0,051392892958279 
647	 5,13305060093584E-02 
648	 5,06234453281635E-02 
649	 0,05037102887177 
650	 5,05458505497658E-02 
651	 5,09959818252009E-02 
652	 5,04543859880255E-02 
653	 4,94606352972098E-02 
654	 4,95029443777976E-02 
655	 4,96547565997302E-02 
656	 0,049556959641788 
657	 4,89936307849552E-02 
658	 4,83945494882245E-02 
659	 4,82122510340705E-02 
660	 4,81133842315297E-02 
661	 4,79887681342626E-02 
662	 4,77594104165173E-02 
663	 4,74318410439366E-02 
664	 4,70586593322342E-02 
665	 4,69706081565289E-02 
666	 4,69895677702706E-02 
667	 4,67660188836694E-02 
668	 4,68068950352125E-02 
669	 4,70661682402302E-02 
670	 4,68180112398266E-02 
671	 4,64228250410116E-02 
672	 4,62230896693452E-02 
673	 4,65576249308934E-02 
674	 4,71032836712656E-02 
675	 4,69389010543522E-02 
676	 4,68474763435289E-02 
677	 4,69957127503816E-02 
678	 4,65179475386293E-02 
679	 4,63455929084249E-02 
680	 4,76158353083446E-02 
681	 4,81859681770825E-02 
682	 4,78587201184126E-02 
683	 4,76984264495847E-02 
684	 4,79434715768948E-02 
685	 4,86657327500856E-02 
686	 4,89845765563657E-02 
687	 4,91500503021836E-02 
688	 4,98223597318045E-02 
689	 5,06172533077404E-02 
690	 5,13870938010571E-02 
691	 5,20206728659416E-02 
692	 5,26665840137465E-02 
693	 5,34785439132022E-02 
694	 5,45878170555006E-02 
695	 5,59670093819793E-02 
696	 5,74680640006882E-02 
697	 5,91623114572606E-02 
698	 6,09681295195888E-02 
699	 6,22835325620505E-02 
700	 6,36179894088872E-02 
701	 6,56866239645449E-02 
702	 0,067594790085789 
703	 6,92497860615972E-02 
704	 7,12142382158228E-02 
705	 7,29386080556334E-02 
706	 0,074125405854327 
707	 7,54081569522338E-02 
708	 7,68130412813147E-02 
709	 7,81966392351862E-02 
710	 7,95714047266877E-02 
711	 8,09080308699868E-02 
712	 8,20876968682648E-02 
713	 8,32401277210577E-02 
714	 8,44728203482919E-02 
715	 8,54686349715147E-02 
716	 8,62747894794998E-02 
717	 8,71793127108434E-02 
718	 8,80176646181431E-02 
719	 8,87373261944193E-02 
720	 8,94231777395714E-02 
721	 9,00888438428049E-02 
722	 9,07439498168904E-02 
723	 9,11881347243639E-02 
724	 9,14630881606887E-02 
725	 9,18729731585529E-02 
726	 9,22609299342852E-02 
727	 9,25394730473514E-02 
728	 9,28210664679035E-02 
729	 9,31044167553434E-02 
730	 9,33411571406777E-02 
731	 9,37804692768327E-02 
732	 9,43826709800919E-02 
733	 9,46575790954574E-02 
734	 0,094828673156404 
735	 9,50912310916037E-02 
736	 0,095103217774405 
737	 9,50868955146954E-02 
738	 9,57879468288893E-02 
739	 9,62006834007083E-02 
740	 9,60448189496446E-02 
741	 9,61376912823732E-02 
742	 0,096299839113227 
743	 9,62532588200652E-02 
744	 9,62793209932634E-02 
745	 9,63995631872005E-02 
746	 9,65027591762641E-02 
747	 9,64731030388654E-02 
748	 9,63196450850351E-02 
749	 9,65801899932075E-02 
750	 9,70357949911788E-02 
751	 9,72534342101398E-02 
752	 9,74895155931457E-02 
753	 9,78047086524738E-02 
754	 9,82447919960427E-02 
755	 9,84273675344908E-02 
756	 9,81247010727034E-02 
757	 9,79471169948655E-02 
758	 9,80074519984032E-02 
759	 9,83197721589037E-02 
760	 9,86059470843108E-02 
761	 9,87606608574373E-02 
762	 9,88324012259866E-02 
763	 9,89629519871753E-02 
764	 9,92733006596403E-02 
765	 9,95970946096395E-02 
766	 9,97792525993459E-02 
767	 9,94303619885526E-02 
768	 9,95366254587078E-02 
769	 0,100283362202259 
770	 0,100180642283196 
771	 9,98929500201202E-02 
772	 0,100330496829003 
773	 0,1005984788422 
774	 0,100610675946358 
775	 0,100724873670922 
776	 0,100914243282779 
777	 0,101122814241552 
778	 0,101020471197802 
779	 0,100825396790955 
780	 0,100906158555698 
781	 0,10098847267707 
782	 0,101063191576274 
783	 0,101379140259757 
784	 0,101582009424388 
785	 0,101478500311966 
786	 0,101574320104424 
787	 0,101756194006889 
788	 0,101687884747368 
789	 0,101651748767206 
790	 0,10178423684707 
791	 0,10234451899685 
792	 0,102545179246567 
793	 0,101885748062069 
794	 0,102111579483244 
795	 0,102910584655257 
796	 0,102989140498868 
797	 0,102951710123045 
798	 0,102970178401213 
799	 0,102991080009405 
800	 0,102965695334301 
801	 0,102862723128604 
802	 0,102892406970741 
803	 0,103037394368799 
804	 0,103114240012994 
805	 0,103380034737309 
806	 0,103855719406953 
807	 0,104143294815836 
808	 0,104355924451375 
809	 0,104622198338654 
810	 0,104322852297823 
811	 0,103752329507701 
812	 0,104095044869683 
813	 0,104242724971038 
814	 0,103862717631778 
815	 0,103936460076268 
816	 0,104250523938122 
817	 0,104449176230996 
818	 0,104479690688063 
819	 0,104418835965173 
820	 0,10457426846528 
821	 0,104667630585705 
822	 0,104623864467862 
823	 0,104855449634756 
824	 0,105134054804337 
825	 0,10512456096789 
826	 0,105444516356003 
827	 0,105909657116996 
828	 0,105479174476308 
829	 0,105008601322618 
830	 0,104942597489709 
831	 0,104960423859258 
832	 0,105023206259651 
833	 0,105115298043349 
834	 0,105714767748031 
835	 0,106595790506574 
836	 0,106726538795012 
837	 0,106540366845901 
838	 0,106348651754658 
839	 0,106577088215096 
840	 0,106853700494437 
841	 0,106589009175232 
842	 0,106383541013197 
843	 0,106263361069695 
844	 0,105714430083024 
845	 0,105517180053985 
846	 0,106006000139671 
847	 0,10627083291707 
848	 0,106262846260188 
849	 0,106074456602229 
850	 0,106437316292253 
851	 0,107105213951429 
852	 0,106547922393416 
853	 0,106321781700464 
854	 0,10708542061896 
855	 0,107144059657472 
856	 0,106768941654704 
857	 0,106589492916151 
858	 0,106618985464123 
859	 0,106735883342261 
860	 0,106484145462158 
861	 0,106178593244106 
862	 0,106035167158441 
863	 0,106284899588453 
864	 0,106592696006565 
865	 0,106503123833626 
866	 0,106500413182614 
867	 0,106737696159226 
868	 0,107380157549627 
869	 0,107739897917188 
870	 0,107462771606411 
871	 0,106645726929552 
872	 0,106063705909873 
873	 0,106582524258285 
874	 0,107268048114804 
875	 0,107722951716591 
876	 0,107495623786996 
877	 0,107249181229064 
878	 0,107318820260497 
879	 0,107727278735675 
880	 0,108200319792507 
881	 0,108429024255204 
882	 0,108356199960738 
883	 0,108116486931671 
884	 0,108052610085825 
885	 0,108186771698215 
886	 0,108509262949463 
887	 0,108880110016593 
888	 0,109063680582172 
889	 0,10888995392325 
890	 0,108987116035975 
891	 0,109119438915567 
892	 0,108448545119967 
893	 0,108249189924263 
894	 0,108871190585098 
895	 0,109982676691961 
896	 0,11024798780775 
897	 0,108788874749405 
898	 0,107491674156686 
899	 0,10707543552201 
900	 0,108214820067372 
901	 0,108765754313623 
902	 0,10831767510872 
903	 0,107980576615542 
904	 0,108125879540037 
905	 0,108787965635112 
906	 0,10826020094179 
907	 0,107624276279123 
908	 0,108676168163081 
909	 0,108716281011808 
910	 0,107850728831078 
911	 0,108688417215853 
912	 0,108952923856147 
913	 0,107822329518186 
914	 0,107063795283453 
915	 0,107264933108622 
916	 0,108747661658681 
917	 0,108724159001563 
918	 0,107805772209814 
919	 0,109247910754992 
920	 0,10966134041373 
921	 0,108297326189647 
922	 0,10742943528123 
923	 0,107245452082592 
924	 0,107795161355911 
925	 0,108715695031229 
926	 0,109505264699928 
927	 0,10948110856043 
928	 0,108963881127406 
929	 0,108430984679974 
930	 0,109239248864551 
931	 0,109766748782502 
932	 0,109204398327765 
933	 0,109113437285896 
934	 0,109411435255238 
935	 0,10978375317191 
936	 0,111406946427465 
937	 0,113126728690068 
938	 0,111058665355397 
939	 0,109232304612705 
940	 0,109197689405972 
941	 0,109999813089094 
942	 0,11034892409182 
943	 0,109376257424691 
944	 0,110263966674886 
945	 0,11174913658101 
946	 0,110500501585664 
947	 0,110256235269261 
948	 0,111106838705423 
949	 0,109184654345373 
950	 0,107818503523175 
951	 0,108750614317955 
952	 0,109789467605663 
953	 0,110286774335945 
954	 0,109763268972358 
955	 0,10817079158865 
956	 0,106630062054608 
957	 0,107939955377024 
958	 0,108705908200787 
959	 0,10807361691815 
960	 0,10792706241608 
961	 0,108639705122617 
962	 0,110180730824698 
963	 0,110280067380975 
964	 0,10952974582537 
965	 0,109347718546719 
966	 0,108967437663559 
967	 0,108572492128036 
968	 0,109168646486071 
969	 0,109825247591502 
970	 0,110070120524236 
971	 0,11011729384077 
972	 0,10878139211409 
973	 0,10553190131176 
974	 0,106536544044755 
975	 0,10959282207982 
976	 0,108896746954282 
977	 0,10811968061262 
978	 0,107954264890494 
979	 0,107279328547729 
980	 0,10709563421292 
981	 0,108048742699164 
982	 0,111085020398923 
983	 0,112523417472961 
984	 0,109162919868561 
985	 0,108469515435956 
986	 0,110514813300714 
987	 0,112709410185281 
988	 0,111911241599245 
989	 0,108860828896753 
990	 0,110027158281566 
991	 0,111962386766122 
992	 0,11259988854906 
993	 0,111091600239248 
994	 0,110368492671624 
995	 0,112986279917838 
996	 0,110823787893749 
997	 0,106807425667686 
998	 0,109476932746401 
999	 0,111286307146756 
1000	 0,111257693767751 
1001	 0,114072963913967 
1002	 0,115405034805952 
1003	 0,113581484850079 
1004	 0,112243653878188 
1005	 0,112098886821894 
1006	 0,113393821154148 
1007	 0,114376357817739 
1008	 0,114838907331645 
1009	 0,115094584756678 
1010	 0,113875927485872 
1011	 0,112247846992299 
1012	 0,114676634606191 
1013	 0,116999059073987 
1014	 0,117032394760362 
1015	 0,11433572841004 
1016	 0,111400610017032 
1017	 0,110699659124779 
1018	 0,113917348710156 
1019	 0,116698087433653 
1020	 0,112541752955992 
1021	 0,111776604219866 
1022	 0,115428117969961 
1023	 0,119632091944248 
1024	 0,119569152767263 
1025	 0,115314533878736 
1026	 0,116425391565923 
1027	 0,118126458265963 
1028	 0,117230711665766 
1029	 0,115457134033888 
1030	 0,116057742668436 
1031	 0,121757133910113 
1032	 0,120262919402245 
1033	 0,115739725830794 
1034	 0,121549686564758 
1035	 0,123402559052021 
1036	 0,118622908384425 
1037	 0,111823437017803 
1038	 0,111787094728016 
1039	 0,119397824663606 
1040	 0,115545738620188 
1041	 0,111530896179777 
1042	 0,116691099063892 
1043	 0,120908345642274 
1044	 0,120143267916105 
1045	 0,111470953676928 
1046	 0,107363535255318 
1047	 0,113082138550908 
1048	 0,133829035832542 
1049	 0,139707915230038 
1050	 0,126853842824009 
1051	 0,118252202754721 
1052	 0,116746703360769 
1053	 0,122419538967572 
1054	 0,125645994938139 
1055	 0,127106441294635 
1056	 0,12784544354926 
1057	 0,127220501952071 
1058	 0,123629196814979 
1059	 0,115710459529897 
1060	 0,117716003914256 
1061	 0,124579610534291 
1062	 0,118481462319685 
1063	 0,106677857724556 
1064	 9,73238761274913E-02 
1065	 0,110185678523612 
1066	 0,127094169390501 
1067	 0,133534372259949 
1068	 0,103362547387463 
1069	 8,50723469768225E-02 
1070	 0,113088461666311 
1071	 0,127765269244806 
1072	 0,128197321434526 
1073	 0,121300199030779 
1074	 0,113241389550142 
1075	 0,109340706817593 
