Wavelength	SCORFF200372.asd
325	 0,135692328613196 
326	 0,26795516925892 
327	 0,195834920409953 
328	-5,06012293561877E-02 
329	 4,41682972023894E-02 
330	 0,161609235373203 
331	 7,59144081319814E-02 
332	 6,64158881338066E-02 
333	 0,111870338472683 
334	 0,070091394250437 
335	 8,44290303803206E-02 
336	 0,147092838349669 
337	 7,83337232750649E-02 
338	-3,74104715827052E-02 
339	-6,22895355486371E-02 
340	-2,31159636627287E-02 
341	 0,031389937727956 
342	 3,82487514121616E-02 
343	 0,100422671344622 
344	 0,188314270849479 
345	 0,121869322311047 
346	 4,68012370900138E-02 
347	 0,108470915961347 
348	 0,128276517256267 
349	 0,102565352339349 
350	 9,60224100063284E-02 
351	 9,86320658919102E-02 
352	 0,100468797951258 
353	 6,47242149058134E-02 
354	 0,020946138828152 
355	 5,84435437719016E-03 
356	 3,31814038286235E-02 
357	 8,12189716954877E-02 
358	 0,103967352203274 
359	 9,86680331623585E-02 
360	 6,61557220423644E-02 
361	 3,03358151843861E-02 
362	 1,86129562867249E-02 
363	 6,17123132639203E-02 
364	 6,80569274596506E-02 
365	 4,01547802492204E-02 
366	 6,21346079548901E-02 
367	 0,079732242123812 
368	 6,00456245694963E-02 
369	 1,57586203390175E-02 
370	-2,55689877456743E-02 
371	-1,18394896563192E-02 
372	 8,57292537634483E-03 
373	 0,022176862426304 
374	 3,48293240101843E-02 
375	 4,59589321595321E-02 
376	 5,56922543123689E-02 
377	 5,51007203898174E-02 
378	 0,045155713550042 
379	 2,81649286565264E-02 
380	 2,05912912458174E-02 
381	 2,82616931786369E-02 
382	 4,45780489830742E-02 
383	 5,65640193864604E-02 
384	 5,42731562170473E-02 
385	 2,93354849439498E-02 
386	 3,31100367066886E-03 
387	 0,033786909340912 
388	 5,61257319129054E-02 
389	 0,045948315094847 
390	 2,84174763887149E-02 
391	 1,81713866587522E-02 
392	 3,11384586055774E-02 
393	 2,48937906511177E-02 
394	 4,6633898194096E-03 
395	 1,68817467885225E-02 
396	 2,44438946832502E-02 
397	 1,24453040169918E-02 
398	 1,17594127130654E-02 
399	 2,14595384023466E-02 
400	 3,61942456883424E-02 
401	 3,62087667467156E-02 
402	 2,19194364535084E-02 
403	 1,37626620374033E-02 
404	 1,77720870375762E-02 
405	 3,43635447286967E-02 
406	 0,03173448626929 
407	 1,95637849723479E-02 
408	 2,64374719731987E-02 
409	 3,31936389415798E-02 
410	 3,46286385599477E-02 
411	 3,50389753591264E-02 
412	 3,14929790742958E-02 
413	 2,18989510651901E-02 
414	 2,11646084417209E-02 
415	 0,027946833290738 
416	 0,032863392386212 
417	 3,34815513601434E-02 
418	 2,95174048819966E-02 
419	 2,75868079512525E-02 
420	 0,027862449347631 
421	 2,96610535610608E-02 
422	 3,31891362582996E-02 
423	 3,63149338650035E-02 
424	 3,28710121148591E-02 
425	 0,02918251671756 
426	 2,90336184002434E-02 
427	 3,06036449913189E-02 
428	 3,13945304989076E-02 
429	 2,70533983670554E-02 
430	 0,026747431836459 
431	 3,13728248647676E-02 
432	 3,24806117158625E-02 
433	 3,14479922571689E-02 
434	 2,99554154290281E-02 
435	 2,95098139889684E-02 
436	 3,05771318650454E-02 
437	 3,38659589812799E-02 
438	 3,53900659980602E-02 
439	 3,33837689209647E-02 
440	 2,84771518553959E-02 
441	 2,51437148539681E-02 
442	 2,86607751730556E-02 
443	 3,07970071003246E-02 
444	 3,06066483142355E-02 
445	 3,24786920712849E-02 
446	 3,35835720894973E-02 
447	 3,24510074866159E-02 
448	 3,21885073556282E-02 
449	 3,27319352217078E-02 
450	 3,31937068483912E-02 
451	 3,28572050850546E-02 
452	 3,18664682314102E-02 
453	 3,21595871743448E-02 
454	 3,25003413983701E-02 
455	 3,17433902231536E-02 
456	 3,14810936187223E-02 
457	 3,18866818553038E-02 
458	 3,27847403922633E-02 
459	 3,26525879159736E-02 
460	 3,11445463538493E-02 
461	 3,04077120225547E-02 
462	 3,11965099483941E-02 
463	 3,41969862982751E-02 
464	 3,43596696167942E-02 
465	 0,031733439067284 
466	 3,10456016003585E-02 
467	 3,22671034054031E-02 
468	 3,48740594668529E-02 
469	 0,034706989393318 
470	 3,25024828837642E-02 
471	 3,07408826526771E-02 
472	 0,03048367806666 
473	 3,18735390912705E-02 
474	 3,31823672655843E-02 
475	 3,40214969470607E-02 
476	 3,41269435779028E-02 
477	 3,37654559587885E-02 
478	 3,29992396289849E-02 
479	 3,17881243866454E-02 
480	 3,02076710673754E-02 
481	 2,87406391092046E-02 
482	 3,00021819867899E-02 
483	 3,22319802205191E-02 
484	 3,25480439049026E-02 
485	 3,22533907257322E-02 
486	 3,19853494534643E-02 
487	 3,27032693316251E-02 
488	 3,42027761352771E-02 
489	 3,60107803341573E-02 
490	 0,035152320111186 
491	 3,30719183694454E-02 
492	 3,42919473397683E-02 
493	 3,47057137229588E-02 
494	 3,32383097082287E-02 
495	 3,19228793775258E-02 
496	 3,16827180082066E-02 
497	 3,33152931513758E-02 
498	 3,52398689954202E-02 
499	 3,64331306822672E-02 
500	 3,51868606971927E-02 
501	 3,40523908295069E-02 
502	 3,43893154980529E-02 
503	 3,41515416622325E-02 
504	 3,39565235366162E-02 
505	 3,53341780973802E-02 
506	 3,67955125498364E-02 
507	 3,73887855992171E-02 
508	 3,51849591996996E-02 
509	 3,32189855525603E-02 
510	 3,41522096976946E-02 
511	 3,46446746411591E-02 
512	 3,45799002622333E-02 
513	 0,035492047382252 
514	 3,59133945946406E-02 
515	 3,53573739296505E-02 
516	 3,49651965808742E-02 
517	 3,50883902248939E-02 
518	 3,60473830779764E-02 
519	 3,62516229583416E-02 
520	 3,59687501603318E-02 
521	 3,80887135806753E-02 
522	 3,91274190103344E-02 
523	 3,68871472931618E-02 
524	 3,63712911722328E-02 
525	 3,74202918578251E-02 
526	 3,79508106061573E-02 
527	 3,76892778539843E-02 
528	 3,67935429809997E-02 
529	 0,037083604826968 
530	 3,79369601364193E-02 
531	 3,84778342316586E-02 
532	 3,83490093546734E-02 
533	 3,78384962223536E-02 
534	 3,81373726946007E-02 
535	 3,86406288767936E-02 
536	 3,89134078630761E-02 
537	 3,84741939166927E-02 
538	 3,78080355482787E-02 
539	 3,78828201867668E-02 
540	 3,81409167751535E-02 
541	 3,84530297318409E-02 
542	 3,90743981860968E-02 
543	 3,95081987615595E-02 
544	 3,93005042982972E-02 
545	 3,92526175832449E-02 
546	 3,95208144071035E-02 
547	 4,00925882780685E-02 
548	 4,03783669223153E-02 
549	 4,01579597249464E-02 
550	 4,01400759016637E-02 
551	 4,04762763574047E-02 
552	 0,041293608592653 
553	 4,15923994211684E-02 
554	 4,12884110202806E-02 
555	 4,13821338596871E-02 
556	 0,041474776254878 
557	 4,12709610832881E-02 
558	 4,17169445588074E-02 
559	 4,23210388443471E-02 
560	 4,13404889647128E-02 
561	 4,08687465114675E-02 
562	 0,041538666372145 
563	 4,15977217793629E-02 
564	 4,12608487914526E-02 
565	 4,10135357890138E-02 
566	 4,14999472030457E-02 
567	 4,25128817607917E-02 
568	 4,26409900785254E-02 
569	 4,28553251537084E-02 
570	 4,37468730678254E-02 
571	 4,41355445842768E-02 
572	 4,39897763955692E-02 
573	 4,35678540096864E-02 
574	 4,35523497879398E-02 
575	 4,41430944239368E-02 
576	 4,48725292114638E-02 
577	 4,50529293640807E-02 
578	 4,40264493581269E-02 
579	 4,44262421336462E-02 
580	 4,59670474066956E-02 
581	 0,04575485851811 
582	 4,53702712603934E-02 
583	 0,045623527702355 
584	 4,53897028407669E-02 
585	 4,51543632153856E-02 
586	 4,60636704602022E-02 
587	 0,046234853289925 
588	 4,54402713943065E-02 
589	 4,53941891026385E-02 
590	 4,57445573395811E-02 
591	 0,046102608412077 
592	 4,69451645600701E-02 
593	 4,77192819986682E-02 
594	 4,65974854346713E-02 
595	 4,61397040878312E-02 
596	 4,72949110879882E-02 
597	 4,76163461911903E-02 
598	 4,72857077077386E-02 
599	 4,69636137008797E-02 
600	 4,70382851548143E-02 
601	 4,73855075686241E-02 
602	 4,69035299117039E-02 
603	 4,65253680081388E-02 
604	 4,69444524309249E-02 
605	 4,71171369830639E-02 
606	 4,69552097415968E-02 
607	 4,66249409414178E-02 
608	 4,67151033175334E-02 
609	 0,047212416577295 
610	 4,64756165671382E-02 
611	 4,56619120579305E-02 
612	 0,046335088289798 
613	 4,63096142082885E-02 
614	 4,56019295347853E-02 
615	 0,04616074953157 
616	 0,046667453304775 
617	 4,63395164265903E-02 
618	 4,61512306215363E-02 
619	 0,046330615926826 
620	 4,71003375564184E-02 
621	 4,74589492203719E-02 
622	 4,71730949732737E-02 
623	 4,70074727867228E-02 
624	 4,68616824577764E-02 
625	 0,046597797213666 
626	 4,65131509183778E-02 
627	 4,66085716887658E-02 
628	 4,65887832100773E-02 
629	 4,71395715037055E-02 
630	 4,83327332692463E-02 
631	 4,80118668794728E-02 
632	 4,71212808020841E-02 
633	 4,76028062222173E-02 
634	 4,78587998634566E-02 
635	 4,76948134330917E-02 
636	 4,82718289171942E-02 
637	 4,87664216452925E-02 
638	 4,84893164505168E-02 
639	 4,81581634058994E-02 
640	 0,048099071413199 
641	 4,88115726498486E-02 
642	 0,049370198074965 
643	 4,94126754560911E-02 
644	 4,93930537877687E-02 
645	 4,93915288789112E-02 
646	 4,94564016620595E-02 
647	 4,94646577695438E-02 
648	 4,94191448414744E-02 
649	 4,94096492703642E-02 
650	 4,95910811673497E-02 
651	 4,99359521907024E-02 
652	 4,91928376633761E-02 
653	 4,79833221210457E-02 
654	 4,78902068057253E-02 
655	 4,82041027613441E-02 
656	 4,85751575361362E-02 
657	 4,85065215201321E-02 
658	 4,80915718662451E-02 
659	 0,047484472518305 
660	 4,69790899498372E-02 
661	 4,66610731744029E-02 
662	 4,65450910343751E-02 
663	 0,046296114691013 
664	 4,58351270354642E-02 
665	 4,59362366767099E-02 
666	 4,63079321815182E-02 
667	 4,63698503883838E-02 
668	 4,63380451899904E-02 
669	 4,62759488311013E-02 
670	 0,046261433644186 
671	 4,61511090278812E-02 
672	 4,58648968821806E-02 
673	 4,58418195212121E-02 
674	 4,61071694691887E-02 
675	 4,66178762270665E-02 
676	 4,66982384552627E-02 
677	 4,62572538360848E-02 
678	 4,64111295968418E-02 
679	 4,68829513901716E-02 
680	 4,72295389985029E-02 
681	 4,72991828787832E-02 
682	 4,71851403231998E-02 
683	 0,04731642292273 
684	 4,75948300259172E-02 
685	 4,79644581235746E-02 
686	 0,048410191232609 
687	 4,89361320192915E-02 
688	 4,95875183704096E-02 
689	 5,00048662865447E-02 
690	 5,02263207677028E-02 
691	 5,08839348574159E-02 
692	 5,18233110727215E-02 
693	 5,28867182931936E-02 
694	 5,42165812665468E-02 
695	 5,57197691128523E-02 
696	 0,057052792750785 
697	 5,88497267943181E-02 
698	 6,12194287484158E-02 
699	 6,30854899641507E-02 
700	 6,48844014562363E-02 
701	 6,72987900063965E-02 
702	 7,01148244171831E-02 
703	 7,31325209804944E-02 
704	 7,59225942149344E-02 
705	 0,078643460783425 
706	 8,13564662749079E-02 
707	 0,083690078931052 
708	 8,59681274692702E-02 
709	 8,89032131391166E-02 
710	 9,14478523093874E-02 
711	 9,34291341072451E-02 
712	 0,095635084969395 
713	 0,097983751876493 
714	 0,100324564573645 
715	 0,101986515287384 
716	 0,103256890014749 
717	 0,105260178073331 
718	 0,107080638147851 
719	 0,108389290658618 
720	 0,109634475593381 
721	 0,110910560523579 
722	 0,112285417850137 
723	 0,113409046082775 
724	 0,114280417497492 
725	 0,115204002155369 
726	 0,116111138390181 
727	 0,116937047299156 
728	 0,117472844577925 
729	 0,117936566114647 
730	 0,118776001981593 
731	 0,119416075261598 
732	 0,119795693320865 
733	 0,120484468158254 
734	 0,121104316077289 
735	 0,121336032204121 
736	 0,121660886194391 
737	 0,122137519840066 
738	 0,122722206451904 
739	 0,123092960230798 
740	 0,123187149074997 
741	 0,123472683223712 
742	 0,123833211650391 
743	 0,124087886175211 
744	 0,124174252960309 
745	 0,12423459889034 
746	 0,124817906988102 
747	 0,125032377660926 
748	 0,124596589292359 
749	 0,12521267509134 
750	 0,126158461310068 
751	 0,126022022243086 
752	 0,126030345866514 
753	 0,126408755431405 
754	 0,126689117119123 
755	 0,126926175676956 
756	 0,127145120642412 
757	 0,127120894492958 
758	 0,127178271064771 
759	 0,128100173724309 
760	 0,128505069724058 
761	 0,128139238069894 
762	 0,128143166439274 
763	 0,128442969628216 
764	 0,128889602580721 
765	 0,129124999422662 
766	 0,129179550905991 
767	 0,129333217109833 
768	 0,129570025921014 
769	 0,12985663211674 
770	 0,129993729694226 
771	 0,130035968900834 
772	 0,130078276399633 
773	 0,130642931050701 
774	 0,131457191368588 
775	 0,131366631899549 
776	 0,131075287899364 
777	 0,130949233795296 
778	 0,130751258719907 
779	 0,130712249189982 
780	 0,131186218584243 
781	 0,131522577307432 
782	 0,131622498136163 
783	 0,131872075046763 
784	 0,132009687529055 
785	 0,131900718819953 
786	 0,131906509577278 
787	 0,132088683259495 
788	 0,132478269533012 
789	 0,132580483124745 
790	 0,13237371336377 
791	 0,132474719447527 
792	 0,132646322504825 
793	 0,132713953261842 
794	 0,13309699647579 
795	 0,133529251434561 
796	 0,133299684829619 
797	 0,133122145641531 
798	 0,133249874254372 
799	 0,13362994909143 
800	 0,133943678529518 
801	 0,133908691222255 
802	 0,133842745613479 
803	 0,133866810073905 
804	 0,134116473041477 
805	 0,13438592933561 
806	 0,134588471770789 
807	 0,134735458439145 
808	 0,134920730763078 
809	 0,135231641764951 
810	 0,1354162094578 
811	 0,135413032787658 
812	 0,135168049191946 
813	 0,135110210278823 
814	 0,135402939334048 
815	 0,135754763540298 
816	 0,135954718192257 
817	 0,135800114076119 
818	 0,135633067994881 
819	 0,135666189576076 
820	 0,13631015058754 
821	 0,136626225568703 
822	 0,136311409592014 
823	 0,136669709862869 
824	 0,137106270280727 
825	 0,136716915717341 
826	 0,13700308890334 
827	 0,137817279092977 
828	 0,137525600979775 
829	 0,137220340177777 
830	 0,137395494566089 
831	 0,137331561698372 
832	 0,137058142895348 
833	 0,136714118720911 
834	 0,137697672881228 
835	 0,139501146008294 
836	 0,139415443476491 
837	 0,13882828755528 
838	 0,13854910582486 
839	 0,138561918989937 
840	 0,13876051716723 
841	 0,138967382457437 
842	 0,139030827862427 
843	 0,138996549533732 
844	 0,139181079888434 
845	 0,13941056691961 
846	 0,139536820473268 
847	 0,139260784239896 
848	 0,13890672757885 
849	 0,138966028795719 
850	 0,139171133000521 
851	 0,139395570340433 
852	 0,139499586240235 
853	 0,139368166642321 
854	 0,139055970851073 
855	 0,139401664342063 
856	 0,139840751758031 
857	 0,139492644783823 
858	 0,139234880638434 
859	 0,139208993204127 
860	 0,139114723706834 
861	 0,139147337502974 
862	 0,139334762475972 
863	 0,1391694132999 
864	 0,139005848272394 
865	 0,139356108621126 
866	 0,139390118945107 
867	 0,139289136315114 
868	 0,140363472219744 
869	 0,140677417734461 
870	 0,139630044878877 
871	 0,139688156875405 
872	 0,140287995073927 
873	 0,140477872608274 
874	 0,140859446964423 
875	 0,14133996698383 
876	 0,14132414284987 
877	 0,141435748967557 
878	 0,141835260338709 
879	 0,141761695589555 
880	 0,141807928590639 
881	 0,142592817384994 
882	 0,142484157284928 
883	 0,141781233402697 
884	 0,142131892000981 
885	 0,142562021571139 
886	 0,142827374452876 
887	 0,143555691250953 
888	 0,143899003449697 
889	 0,143153177866344 
890	 0,143086515604967 
891	 0,14342095461959 
892	 0,142699645102395 
893	 0,143000273278562 
894	 0,144346964154573 
895	 0,14377884579916 
896	 0,142880592299099 
897	 0,142945342430594 
898	 0,143092649075874 
899	 0,143170119706467 
900	 0,143119092211285 
901	 0,143258442064954 
902	 0,143502549845833 
903	 0,143203901128053 
904	 0,142766177963526 
905	 0,1425108649777 
906	 0,142747680621633 
907	 0,143072121830529 
908	 0,142864067465093 
909	 0,142981222310556 
910	 0,143442991761741 
911	 0,143670166874382 
912	 0,143717369035686 
913	 0,143589950102201 
914	 0,143162761690327 
915	 0,143079197024719 
916	 0,143966827716084 
917	 0,144084400750242 
918	 0,143710622743775 
919	 0,144570958698445 
920	 0,144936355171514 
921	 0,144424453920912 
922	 0,144272242735693 
923	 0,144132649864932 
924	 0,143732480852674 
925	 0,143689949400362 
926	 0,143917679445682 
927	 0,144085947861741 
928	 0,144202227339961 
929	 0,144205651496116 
930	 0,143883461020091 
931	 0,143819812133152 
932	 0,144302012081624 
933	 0,144778118923597 
934	 0,144896151393397 
935	 0,144350699419359 
936	 0,144932706449143 
937	 0,146131586358764 
938	 0,145339293165167 
939	 0,144579745067254 
940	 0,144610711280033 
941	 0,145035340410021 
942	 0,145286501934668 
943	 0,144966876758254 
944	 0,145415866103883 
945	 0,14588367570675 
946	 0,14455434459769 
947	 0,144120770492194 
948	 0,144788967917826 
949	 0,144313391007005 
950	 0,143449536374366 
951	 0,142816478228816 
952	 0,143506031201375 
953	 0,143927957143335 
954	 0,14218340248122 
955	 0,141604721352079 
956	 0,142344098633643 
957	 0,143089072353919 
958	 0,142192035693761 
959	 0,140061410274184 
960	 0,141576938789067 
961	 0,143576887791852 
962	 0,143507823104391 
963	 0,142493826921853 
964	 0,141440989058559 
965	 0,141472126603682 
966	 0,141595871026775 
967	 0,141661922426198 
968	 0,142038804421624 
969	 0,142139094808244 
970	 0,141994359774935 
971	 0,14337496080187 
972	 0,144131899917066 
973	 0,142418201333984 
974	 0,140859365605165 
975	 0,140424232673682 
976	 0,141934534467156 
977	 0,142498993935418 
978	 0,141852700959256 
979	 0,142257830155048 
980	 0,142567971654908 
981	 0,142593239118721 
982	 0,14470949066302 
983	 0,146277185599687 
984	 0,144718957427703 
985	 0,143669495015524 
986	 0,143856264789003 
987	 0,145346689706236 
988	 0,145475151944235 
989	 0,144009613726951 
990	 0,143105330421746 
991	 0,143504135342147 
992	 0,145213246925482 
993	 0,145559774553118 
994	 0,145518371127728 
995	 0,146187664081446 
996	 0,144829150010692 
997	 0,143066776630209 
998	 0,144952473516795 
999	 0,145673618919233 
1000	 0,145006481213415 
1001	 0,147244660582317 
1002	 0,149705129199969 
1003	 0,150806417262366 
1004	 0,149923250735045 
1005	 0,148886738584759 
1006	 0,149461060580845 
1007	 0,149962462279914 
1008	 0,150113100404185 
1009	 0,149928711429691 
1010	 0,150316789814564 
1011	 0,15038351902831 
1012	 0,145777250492704 
1013	 0,144908002758562 
1014	 0,150097580514315 
1015	 0,152763313171341 
1016	 0,151848398441531 
1017	 0,147882477461418 
1018	 0,150237989429804 
1019	 0,154186343482415 
1020	 0,150810323898192 
1021	 0,149291669313749 
1022	 0,150886449179874 
1023	 0,153091507910633 
1024	 0,152837492036731 
1025	 0,150481930781227 
1026	 0,153233379516309 
1027	 0,157306836716661 
1028	 0,159326124655342 
1029	 0,155345471571877 
1030	 0,151901543757379 
1031	 0,156330494636765 
1032	 0,15712927758394 
1033	 0,154956752954389 
1034	 0,155653825781038 
1035	 0,157846654321881 
1036	 0,159474084071577 
1037	 0,15417006571841 
1038	 0,151437323726004 
1039	 0,153927476282575 
1040	 0,150137485472759 
1041	 0,147515072449214 
1042	 0,151849009895766 
1043	 0,153542747837057 
1044	 0,153977348850144 
1045	 0,156654094759358 
1046	 0,158033848646109 
1047	 0,158977787965056 
1048	 0,163130760379663 
1049	 0,165674367246304 
1050	 0,165870550651985 
1051	 0,166926927156598 
1052	 0,163321650215323 
1053	 0,155302118569653 
1054	 0,15929094531318 
1055	 0,16719625165637 
1056	 0,170422300202188 
1057	 0,168864097990421 
1058	 0,163575125629254 
1059	 0,157140091226432 
1060	 0,161875477091189 
1061	 0,170608779975177 
1062	 0,161646494726508 
1063	 0,152456008071652 
1064	 0,149305766474395 
1065	 0,153673554880953 
1066	 0,160559168169595 
1067	 0,164327183011995 
1068	 0,150395973042336 
1069	 0,142844184377543 
1070	 0,158456860119832 
1071	 0,166766250114443 
1072	 0,167338778973461 
1073	 0,163812434059988 
1074	 0,16136150206757 
1075	 0,159184818252773 
