Wavelength	SCORFF200897.asd
325	 0,194624267734513 
326	 0,302893412625801 
327	 0,329037153832753 
328	 0,286325040416996 
329	 0,244437821517888 
330	 0,172719992751192 
331	 3,90063703871235E-02 
332	 3,00187967294624E-02 
333	 9,46877013590287E-02 
334	 6,18026888318643E-02 
335	 9,36559918594782E-02 
336	 0,173448477751756 
337	 0,111601323573649 
338	 9,61096622274323E-03 
339	 1,44386555689688E-02 
340	 7,48514379949105E-02 
341	 0,121548823132035 
342	 5,76284245397385E-02 
343	 4,76567903070364E-02 
344	 0,107357890474525 
345	 7,06111464389535E-02 
346	 3,42446177576465E-02 
347	 9,55483193432838E-02 
348	 0,133389521635611 
349	 0,12863639498793 
350	 8,20422141979675E-02 
351	 6,89527248110121E-02 
352	 0,107695726604263 
353	 0,09497133853553 
354	 5,19578123074733E-02 
355	 6,86741037480695E-03 
356	 4,05216792686202E-02 
357	 0,111921843719205 
358	 7,59319999005884E-02 
359	 4,25761538358177E-02 
360	 5,23311593052346E-02 
361	 4,56274655988782E-02 
362	 3,60286375568311E-02 
363	 5,18153010411951E-02 
364	 6,65351820449313E-02 
365	 7,34361313440906E-02 
366	 6,73438891922182E-02 
367	 5,75357356321958E-02 
368	 4,99152355201998E-02 
369	 3,97877835738182E-02 
370	 3,20725906672833E-02 
371	 3,87413739673326E-02 
372	 3,26308428052503E-02 
373	 1,55718491274871E-02 
374	 3,07582534520587E-02 
375	 4,30297496946773E-02 
376	 2,90677871423238E-02 
377	 2,57475035240069E-02 
378	 3,53209265375414E-02 
379	 5,37285172950436E-02 
380	 4,54942996322519E-02 
381	 1,25661541969044E-02 
382	 3,75207348670751E-02 
383	 5,85109930760989E-02 
384	 2,12621818711565E-02 
385	 1,51550631009228E-02 
386	 4,03435826532871E-02 
387	 5,51099093083756E-02 
388	 6,46856633870047E-02 
389	 6,61356302103804E-02 
390	 4,20256393789118E-02 
391	 1,92574164777851E-02 
392	 3,27287129286289E-02 
393	 1,83562315292067E-02 
394	-0,013690324722658 
395	 1,17669418030737E-02 
396	 3,59091962505823E-02 
397	 0,031801493130544 
398	 2,29797063320273E-02 
399	 2,03725877420757E-02 
400	 3,62542427297097E-02 
401	 3,40553281395894E-02 
402	 0,01374059948174 
403	 9,11833119683978E-03 
404	 1,86640028115551E-02 
405	 3,69301056624353E-02 
406	 2,94574702992611E-02 
407	 1,33023513912084E-02 
408	 0,034370391360068 
409	 4,42991159933858E-02 
410	 3,29864029033212E-02 
411	 2,37807030402883E-02 
412	 1,69666977442078E-02 
413	 0,012100837017551 
414	 1,99876021649329E-02 
415	 3,26063878732049E-02 
416	 2,65031801681611E-02 
417	 2,13075759376968E-02 
418	 2,35227219992011E-02 
419	 1,89096162645248E-02 
420	 1,48876711469912E-02 
421	 2,22327241844032E-02 
422	 2,62369081021418E-02 
423	 2,50211317675031E-02 
424	 2,47781809034603E-02 
425	 2,34362649777521E-02 
426	 2,02602637555842E-02 
427	 1,97990803488739E-02 
428	 2,06367912424482E-02 
429	 1,90238329902494E-02 
430	 1,82156002345763E-02 
431	 0,019165323844472 
432	 2,19202807775933E-02 
433	 2,38735001359397E-02 
434	 2,28598248836144E-02 
435	 2,15558619880296E-02 
436	 2,06320065566248E-02 
437	 2,05397324010817E-02 
438	 1,91865639141878E-02 
439	 1,65273061466952E-02 
440	 1,78384437105429E-02 
441	 1,97162225814311E-02 
442	 1,73718187448809E-02 
443	 1,76533577007511E-02 
444	 2,09466089191983E-02 
445	 2,35493367368302E-02 
446	 2,31043769220601E-02 
447	 0,018834601517772 
448	 1,73483823750433E-02 
449	 1,91093405673603E-02 
450	 2,34096377368647E-02 
451	 2,45013813281733E-02 
452	 2,15428320840355E-02 
453	 2,04744589110011E-02 
454	 2,00166715701878E-02 
455	 1,88101680740929E-02 
456	 1,84952689165544E-02 
457	 1,89794725021357E-02 
458	 1,92306650547097E-02 
459	 1,96733434610245E-02 
460	 2,01522887915357E-02 
461	 1,86224786048635E-02 
462	 0,017557565986411 
463	 2,04209355126569E-02 
464	 2,12284343644436E-02 
465	 0,019196837782661 
466	 1,67843923177741E-02 
467	 1,68274802967084E-02 
468	 2,05478763089805E-02 
469	 2,08975820733773E-02 
470	 1,88552880256471E-02 
471	 1,82676587946667E-02 
472	 1,90909274261459E-02 
473	 2,08456430435605E-02 
474	 2,07945217317039E-02 
475	 2,03230039082642E-02 
476	 2,08737687602859E-02 
477	 0,020697721981545 
478	 1,95001387066218E-02 
479	 0,017227159497193 
480	 1,56391872516794E-02 
481	 1,57224341417967E-02 
482	 1,74852147665956E-02 
483	 1,95685908983707E-02 
484	 0,020117175632896 
485	 2,03741443469151E-02 
486	 2,04343473350953E-02 
487	 1,92732465033426E-02 
488	 1,86592044363826E-02 
489	 1,97810864658857E-02 
490	 2,01409807581549E-02 
491	 1,97434103346004E-02 
492	 1,97025962824615E-02 
493	 1,88364278846998E-02 
494	 1,71952382983542E-02 
495	 1,69556323602547E-02 
496	 1,76411669147851E-02 
497	 1,85028492639547E-02 
498	 1,89688138168857E-02 
499	 1,87866822880731E-02 
500	 1,77555889641795E-02 
501	 1,68201857213656E-02 
502	 1,64814660248974E-02 
503	 0,01563518766378 
504	 1,53267711245588E-02 
505	 1,76846073431115E-02 
506	 1,93289041744538E-02 
507	 1,92296215619428E-02 
508	 0,017918489241832 
509	 1,68150260252777E-02 
510	 0,017117017805688 
511	 1,74489687493642E-02 
512	 1,74681007821783E-02 
513	 1,68119981482958E-02 
514	 0,017281932243518 
515	 1,91198577532703E-02 
516	 1,85298984927179E-02 
517	 1,68653095967536E-02 
518	 1,65116714966776E-02 
519	 1,63211287123963E-02 
520	 1,63395722926057E-02 
521	 1,77922859830317E-02 
522	 1,86520088684854E-02 
523	 1,76599903832759E-02 
524	 1,79926107591921E-02 
525	 1,92430127067199E-02 
526	 1,95164652381621E-02 
527	 1,88000879651637E-02 
528	 1,74600129508058E-02 
529	 1,77498782259834E-02 
530	 1,83168368631425E-02 
531	 1,74503015150846E-02 
532	 1,64948816229793E-02 
533	 1,61114263048796E-02 
534	 1,74137235750838E-02 
535	 1,83851378219961E-02 
536	 1,79114035461745E-02 
537	 0,017460842283231 
538	 1,74309942216992E-02 
539	 1,82035581315695E-02 
540	 1,86217672914207E-02 
541	 1,83325898481573E-02 
542	 1,76427245688635E-02 
543	 1,71735239028918E-02 
544	 1,74747500123163E-02 
545	 1,76873989276027E-02 
546	 1,76201040793917E-02 
547	 1,72823633420282E-02 
548	 1,69400930562546E-02 
549	 1,68218405640544E-02 
550	 1,73690051747876E-02 
551	 1,81398914191539E-02 
552	 1,84176560898438E-02 
553	 1,82618043942698E-02 
554	 1,78891263307814E-02 
555	 1,81612603639061E-02 
556	 1,83412158899592E-02 
557	 1,78453600396565E-02 
558	 1,75187054920152E-02 
559	 1,74799883579684E-02 
560	 1,77236830650549E-02 
561	 1,74173733158939E-02 
562	 1,65191649155351E-02 
563	 1,71852393889022E-02 
564	 1,78654451739615E-02 
565	 1,62873295511691E-02 
566	 0,015788372683712 
567	 1,67103736563726E-02 
568	 1,70590105914379E-02 
569	 1,71884326622137E-02 
570	 1,73321667016467E-02 
571	 1,74012034915157E-02 
572	 1,73494127314196E-02 
573	 1,70368035457267E-02 
574	 1,69464618662979E-02 
575	 1,73203780440368E-02 
576	 0,018416385445171 
577	 1,92181735037904E-02 
578	 1,86216565070729E-02 
579	 1,81727125052291E-02 
580	 1,82730162703834E-02 
581	 1,90297689391911E-02 
582	 1,92519360032195E-02 
583	 1,83958674663472E-02 
584	 1,80404017872337E-02 
585	 1,83853555048412E-02 
586	 1,94578383449463E-02 
587	 1,97804450471025E-02 
588	 1,91563860610505E-02 
589	 1,90502970089747E-02 
590	 1,93366810402846E-02 
591	 1,97964041416155E-02 
592	 1,97486740808096E-02 
593	 1,93651105493879E-02 
594	 1,95319515087666E-02 
595	 1,96777834309886E-02 
596	 1,95767985228032E-02 
597	 1,95383575610956E-02 
598	 1,96002357296472E-02 
599	 1,97895644387406E-02 
600	 0,019494416261574 
601	 1,88410409697056E-02 
602	 1,90172124732354E-02 
603	 1,92599059829051E-02 
604	 1,90077479699508E-02 
605	 1,93358108636698E-02 
606	 0,019868156924709 
607	 0,019282945716675 
608	 1,85446883915183E-02 
609	 1,80866565798937E-02 
610	 1,80753173498038E-02 
611	 1,82547499139855E-02 
612	 1,82868532342271E-02 
613	 0,018239830367021 
614	 1,81163485910673E-02 
615	 1,78292586452567E-02 
616	 1,79264235854922E-02 
617	 1,86083289816951E-02 
618	 1,82458458417885E-02 
619	 0,01756090565039 
620	 1,85026990636539E-02 
621	 1,90582281384252E-02 
622	 1,87295579411024E-02 
623	 1,85212314571939E-02 
624	 1,84764022372998E-02 
625	 1,85685303454188E-02 
626	 1,84553911351887E-02 
627	 1,81997432143571E-02 
628	 1,82039548182565E-02 
629	 1,82870273481399E-02 
630	 0,018350972996746 
631	 1,83495600811942E-02 
632	 1,84174527947913E-02 
633	 1,88006537477806E-02 
634	 1,88811332442034E-02 
635	 1,86505645126264E-02 
636	 1,88917549100705E-02 
637	 1,91474344945767E-02 
638	 1,90648357971722E-02 
639	 0,019559017324567 
640	 2,04042232659417E-02 
641	 2,06744862018045E-02 
642	 2,06634165250106E-02 
643	 0,020549388565032 
644	 2,07719971271808E-02 
645	 2,10616628389725E-02 
646	 2,10148299954734E-02 
647	 0,020862199434405 
648	 2,06549590422247E-02 
649	 0,020300482617083 
650	 2,02032725458806E-02 
651	 2,05801739709913E-02 
652	 2,07838761398912E-02 
653	 2,07641921017339E-02 
654	 2,06314497703895E-02 
655	 2,05406780598561E-02 
656	 2,05382140082601E-02 
657	 2,05796748711473E-02 
658	 2,03081185703567E-02 
659	 1,94116091741313E-02 
660	 1,92583049985711E-02 
661	 0,019711495575743 
662	 1,95205584453103E-02 
663	 1,90335918863143E-02 
664	 1,85008847552067E-02 
665	 1,84457586133656E-02 
666	 1,87402392937841E-02 
667	 0,019089913036075 
668	 1,92894761132173E-02 
669	 1,92389483847983E-02 
670	 1,89169383835451E-02 
671	 1,85251016559008E-02 
672	 1,82767699664616E-02 
673	 1,86907031131492E-02 
674	 1,93661359272694E-02 
675	 1,91519463530126E-02 
676	 1,88737827664726E-02 
677	 1,88188677311989E-02 
678	 1,87510299590232E-02 
679	 1,88808362968263E-02 
680	 1,94598686510109E-02 
681	 1,99707300974534E-02 
682	 2,01942680847585E-02 
683	 1,98921097301311E-02 
684	 1,96378158788923E-02 
685	 1,97821251190995E-02 
686	 2,00845078067049E-02 
687	 2,03813508440428E-02 
688	 2,04263495263952E-02 
689	 2,06922866422481E-02 
690	 2,12697896054889E-02 
691	 2,18208526911277E-02 
692	 2,24740232098625E-02 
693	 2,33672582184019E-02 
694	 2,45620502245963E-02 
695	 2,61465812547479E-02 
696	 2,82969867873049E-02 
697	 3,07029195634927E-02 
698	 3,32567272921696E-02 
699	 3,61174810978806E-02 
700	 3,95112357291727E-02 
701	 4,36994310220533E-02 
702	 4,80720455371822E-02 
703	 0,052613939790396 
704	 5,79187344513628E-02 
705	 6,33996845030587E-02 
706	 6,86698356173503E-02 
707	 7,39186886236244E-02 
708	 7,93016066022842E-02 
709	 8,50591150214642E-02 
710	 9,07026593181342E-02 
711	 9,61038287700981E-02 
712	 0,101514089802754 
713	 0,106656514665355 
714	 0,111310544514962 
715	 0,116265477574197 
716	 0,121402871408831 
717	 0,126061317501635 
718	 0,130373913232955 
719	 0,134371584152847 
720	 0,13803873699662 
721	 0,141458496055334 
722	 0,144741095106748 
723	 0,147964622868979 
724	 0,151034297266029 
725	 0,153568928466063 
726	 0,155860956821722 
727	 0,158079758866823 
728	 0,159958852073884 
729	 0,161710540070046 
730	 0,16377798614599 
731	 0,165583154838394 
732	 0,167007852787517 
733	 0,168428681772534 
734	 0,169629573520319 
735	 0,170445443110547 
736	 0,171348128872631 
737	 0,172456239906447 
738	 0,173906117496291 
739	 0,174918535088674 
740	 0,175299421741155 
741	 0,175909691137867 
742	 0,176622215086437 
743	 0,177204295072718 
744	 0,177565916303446 
745	 0,177843742377879 
746	 0,178521338343166 
747	 0,179207613998676 
748	 0,179682322104756 
749	 0,180016936447467 
750	 0,180252661357286 
751	 0,180437404197314 
752	 0,180724046871364 
753	 0,181109303353322 
754	 0,181349375914492 
755	 0,181727583949731 
756	 0,182390098447803 
757	 0,182653520584508 
758	 0,182671507676395 
759	 0,18295888973815 
760	 0,183405870313403 
761	 0,183885702087421 
762	 0,183866550797296 
763	 0,184089586003083 
764	 0,185184955404824 
765	 0,185505142819457 
766	 0,185154079620275 
767	 0,185196755386685 
768	 0,18557760496624 
769	 0,186177637234692 
770	 0,186207166128262 
771	 0,186153237416264 
772	 0,186654474218414 
773	 0,186989854468737 
774	 0,187094697606284 
775	 0,187309225357124 
776	 0,187448733794812 
777	 0,18742336711066 
778	 0,187267076342083 
779	 0,187169951130391 
780	 0,187393978408331 
781	 0,187564893040592 
782	 0,187603070054642 
783	 0,187609554185678 
784	 0,18768696703021 
785	 0,187896333701655 
786	 0,188154857552775 
787	 0,188308362496657 
788	 0,188092812997385 
789	 0,188154151176261 
790	 0,188566216226933 
791	 0,188761463132995 
792	 0,188763228570956 
793	 0,188640912488166 
794	 0,188790505470982 
795	 0,189147699049121 
796	 0,18947388710746 
797	 0,189348643550976 
798	 0,188868980847991 
799	 0,189283494972421 
800	 0,189763276859274 
801	 0,189539425359418 
802	 0,189943666757543 
803	 0,190705466747693 
804	 0,190504818283184 
805	 0,190339456251695 
806	 0,190524873079257 
807	 0,190632734993741 
808	 0,190870545098404 
809	 0,191449961905552 
810	 0,191582130288376 
811	 0,191412803775744 
812	 0,191842180621687 
813	 0,192191328597345 
814	 0,192237518680738 
815	 0,192472482194006 
816	 0,192699774185546 
817	 0,192648379255912 
818	 0,192575188018682 
819	 0,19262912679876 
820	 0,193110555619995 
821	 0,193315247056756 
822	 0,192994485212877 
823	 0,192955711191663 
824	 0,193066231262516 
825	 0,193054232359074 
826	 0,193720371220089 
827	 0,194755274604293 
828	 0,194633932834855 
829	 0,19433890448006 
830	 0,194422622861063 
831	 0,194893036763073 
832	 0,195386300111287 
833	 0,19540733515502 
834	 0,19582049515231 
835	 0,196531894418759 
836	 0,19658493582181 
837	 0,196309316946207 
838	 0,19598005814178 
839	 0,196183352226493 
840	 0,19645964317852 
841	 0,196069388740775 
842	 0,196350252053307 
843	 0,19709948602292 
844	 0,196445118564696 
845	 0,196115048511477 
846	 0,196866918869833 
847	 0,196820950488495 
848	 0,196422883343299 
849	 0,196586096390706 
850	 0,197121166761275 
851	 0,197602118517243 
852	 0,196701187613425 
853	 0,196234714828027 
854	 0,196988050151811 
855	 0,196975598151282 
856	 0,19652096224211 
857	 0,19636756500411 
858	 0,196613946938928 
859	 0,197065899930948 
860	 0,196983581262933 
861	 0,196844591402114 
862	 0,196874850708737 
863	 0,196720351557392 
864	 0,196880011732814 
865	 0,197998630126676 
866	 0,198555891800581 
867	 0,198381150934617 
868	 0,198150052619276 
869	 0,19805449125474 
870	 0,198189966273503 
871	 0,19826744832044 
872	 0,19839096839692 
873	 0,19871457396577 
874	 0,199203853129941 
875	 0,199771346589677 
876	 0,200225293488186 
877	 0,200617352279807 
878	 0,200931584812038 
879	 0,200965882505937 
880	 0,201103376667777 
881	 0,20172336067937 
882	 0,201848500459302 
883	 0,201680664069244 
884	 0,202263115550474 
885	 0,20297963079107 
886	 0,203525500280845 
887	 0,203568358450758 
888	 0,203502805503139 
889	 0,203708658098745 
890	 0,203848785117438 
891	 0,203913557093076 
892	 0,203997093328246 
893	 0,204130572930674 
894	 0,20434777456381 
895	 0,204865900583536 
896	 0,204758086986431 
897	 0,203472058934174 
898	 0,202838569604751 
899	 0,203175346004727 
900	 0,204514041507879 
901	 0,205018640119182 
902	 0,204425413007503 
903	 0,204147602536197 
904	 0,203822047089738 
905	 0,203348888169627 
906	 0,203662283746229 
907	 0,20407053324129 
908	 0,203462216927816 
909	 0,203098780914706 
910	 0,203295709796764 
911	 0,204111827764912 
912	 0,204355144617854 
913	 0,203604395726086 
914	 0,203093376288587 
915	 0,203227375068364 
916	 0,204208533893332 
917	 0,203806661989855 
918	 0,202646788482253 
919	 0,203471016826132 
920	 0,204721377294819 
921	 0,205478198796792 
922	 0,204200794081987 
923	 0,202724500867874 
924	 0,202648033936754 
925	 0,20319407465019 
926	 0,203623078673111 
927	 0,202840738091002 
928	 0,202267867958835 
929	 0,202344529021449 
930	 0,203107877772952 
931	 0,203427270529242 
932	 0,202740228617463 
933	 0,20220720694343 
934	 0,202083720807791 
935	 0,202496265236433 
936	 0,203347447556876 
937	 0,203780336178284 
938	 0,201432354616025 
939	 0,199960482223566 
940	 0,2004319535182 
941	 0,200137513622285 
942	 0,199500250715728 
943	 0,199012338386147 
944	 0,198511360141739 
945	 0,197756775681073 
946	 0,196281896465764 
947	 0,196129773808668 
948	 0,196903138433734 
949	 0,194695323937952 
950	 0,193482560475123 
951	 0,19487291433942 
952	 0,193366267347249 
953	 0,190505027259885 
954	 0,188811035558598 
955	 0,187464269903106 
956	 0,186725450959719 
957	 0,187742788358001 
958	 0,187063298497776 
959	 0,184459921808225 
960	 0,18487641744765 
961	 0,186189486398789 
962	 0,186557489548784 
963	 0,186032380398443 
964	 0,185285788439101 
965	 0,185351915895055 
966	 0,185357746977925 
967	 0,18499573276145 
968	 0,183944298230391 
969	 0,18326118606254 
970	 0,183286977552176 
971	 0,183102129746957 
972	 0,1825542324233 
973	 0,18171681322108 
974	 0,182541737698987 
975	 0,183525434493044 
976	 0,181391131055968 
977	 0,181322645718302 
978	 0,183289438415817 
979	 0,181768920271203 
980	 0,18121383411346 
981	 0,18358186247863 
982	 0,186787741265892 
983	 0,188194893130712 
984	 0,185721075051248 
985	 0,18412903807711 
986	 0,184661679043702 
987	 0,187876810409661 
988	 0,188473868063942 
989	 0,186363986278808 
990	 0,187715077304828 
991	 0,187933214477106 
992	 0,185531958062741 
993	 0,186625838655822 
994	 0,189358713085777 
995	 0,191086847962369 
996	 0,189913236784918 
997	 0,188020613733646 
998	 0,190322099800939 
999	 0,193311883572573 
1000	 0,195398319465748 
1001	 0,194871580691669 
1002	 0,193514364883461 
1003	 0,19258241441604 
1004	 0,193182754205114 
1005	 0,194255182043193 
1006	 0,194584077551186 
1007	 0,1937204641039 
1008	 0,193041936317669 
1009	 0,195113792910343 
1010	 0,19497931927132 
1011	 0,192818580037945 
1012	 0,193290228729986 
1013	 0,19686552847182 
1014	 0,202184424247257 
1015	 0,201627998750132 
1016	 0,199120472574066 
1017	 0,198581595150255 
1018	 0,200127071128094 
1019	 0,202171723658673 
1020	 0,202282441175675 
1021	 0,201061301708627 
1022	 0,200398377949431 
1023	 0,205545308129261 
1024	 0,206151185480664 
1025	 0,201698458704123 
1026	 0,20746578561965 
1027	 0,212329064566153 
1028	 0,20949963126603 
1029	 0,207593211706795 
1030	 0,208450222445994 
1031	 0,212454431688826 
1032	 0,20958978356934 
1033	 0,204764937319526 
1034	 0,211770610531094 
1035	 0,216320800281927 
1036	 0,215597846817255 
1037	 0,214646854169161 
1038	 0,215365955398411 
1039	 0,217698978033593 
1040	 0,21607335237923 
1041	 0,211899257864785 
1042	 0,207514187479934 
1043	 0,208190471375243 
1044	 0,211494890205098 
1045	 0,213019243325163 
1046	 0,215529985306083 
1047	 0,219598726710728 
1048	 0,225156951847004 
1049	 0,228399595405142 
1050	 0,227777239175744 
1051	 0,22158042245372 
1052	 0,216928243416567 
1053	 0,217203833871115 
1054	 0,21861391732513 
1055	 0,221653268812774 
1056	 0,226634856567369 
1057	 0,234080647906306 
1058	 0,236201467804779 
1059	 0,222869437626822 
1060	 0,219646821159708 
1061	 0,224024647934031 
1062	 0,216995148142566 
1063	 0,213671695793331 
1064	 0,215499098954719 
1065	 0,210617970509856 
1066	 0,209803502906613 
1067	 0,214905323672518 
1068	 0,208915846445145 
1069	 0,204738787120675 
1070	 0,212363434055079 
1071	 0,220216709387924 
1072	 0,226499196902316 
1073	 0,230024017005623 
1074	 0,226347036392593 
1075	 0,218067208440222 
