Wavelength	SCORFF200508.asd
325	 0,34074097931227 
326	 0,386951052150046 
327	 0,320258774688269 
328	 0,199352761804453 
329	 0,226978347349462 
330	 0,264334150456846 
331	 0,206496035784739 
332	 0,131971231209101 
333	 8,61111228095296E-02 
334	 8,43653538621741E-02 
335	 8,71262447399876E-02 
336	 8,06281984560673E-02 
337	 7,13630506070093E-02 
338	 5,04933125565456E-02 
339	 2,19121291060423E-02 
340	 7,97472313444506E-02 
341	 0,147020330497941 
342	 5,89003254659942E-02 
343	 6,26445787104386E-02 
344	 0,169170082053389 
345	 0,107705759447674 
346	 2,69070414265014E-02 
347	 7,85751829881561E-02 
348	 8,96177195744769E-02 
349	 6,45858144614323E-02 
350	 8,81426125153557E-02 
351	 0,107986009251946 
352	 0,100971866424738 
353	 8,69357889059415E-02 
354	 6,83257859680998E-02 
355	 4,60477112551839E-02 
356	 5,59209008347927E-02 
357	 8,78305168316791E-02 
358	 0,10139921859915 
359	 9,57430564632274E-02 
360	 0,06882426541493 
361	 0,014812108404884 
362	-1,51764009452044E-02 
363	 4,82854232684473E-02 
364	 6,94395886160353E-02 
365	 4,45039548108826E-02 
366	 0,069630566225296 
367	 0,081534637265397 
368	 4,62594206567155E-02 
369	 1,03586427096997E-02 
370	-7,46162610742365E-03 
371	 1,92255655578483E-02 
372	 3,46510338114353E-02 
373	 2,90250625478481E-02 
374	 3,43433884612309E-02 
375	 4,23274390927971E-02 
376	 4,74944162418106E-02 
377	 6,06403750437871E-02 
378	 6,96477507047247E-02 
379	 4,70372553256425E-02 
380	 2,85456732029653E-02 
381	 2,77105828274853E-02 
382	 4,54868752424276E-02 
383	 5,36855826405513E-02 
384	 3,11186375174835E-02 
385	 3,82717246725106E-02 
386	 6,41303504238372E-02 
387	 5,16911137486013E-02 
388	 3,93395502099767E-02 
389	 3,96098808464864E-02 
390	 2,95935100997737E-02 
391	 2,00419288796974E-02 
392	 2,64234993256803E-02 
393	 1,83225584294164E-02 
394	 1,91825956789042E-03 
395	 1,78249235901361E-02 
396	 2,91154165696692E-02 
397	 1,99137611689688E-02 
398	 1,39526472095318E-02 
399	 0,012337452695021 
400	 1,16577457325387E-02 
401	 1,82009750205118E-02 
402	 2,72081166372532E-02 
403	 1,59831222831106E-02 
404	 1,17600819498126E-02 
405	 3,00098983088658E-02 
406	 3,20055079414412E-02 
407	 0,023113417246873 
408	 2,47867929407881E-02 
409	 2,64298480134101E-02 
410	 2,51036096749438E-02 
411	 2,10419665693706E-02 
412	 1,64025842782929E-02 
413	 1,33062902437688E-02 
414	 1,41043071724588E-02 
415	 1,85877949591219E-02 
416	 2,67264434860848E-02 
417	 2,96120160126812E-02 
418	 2,42335671610493E-02 
419	 1,75231025102838E-02 
420	 1,41316136526611E-02 
421	 1,88867779593669E-02 
422	 2,49050285423112E-02 
423	 2,89852952739346E-02 
424	 2,82998585797895E-02 
425	 2,41609263158282E-02 
426	 1,81363382518929E-02 
427	 1,60645359095004E-02 
428	 1,68232730925481E-02 
429	 1,66599519176104E-02 
430	 0,017753440000991 
431	 1,98384921285064E-02 
432	 0,019986654055843 
433	 1,87743482192512E-02 
434	 1,70461783695892E-02 
435	 1,81156114305833E-02 
436	 2,05674184800297E-02 
437	 1,91234438335989E-02 
438	 1,88552061045576E-02 
439	 2,09129441674997E-02 
440	 1,94019922559696E-02 
441	 1,63887460907245E-02 
442	 1,50876418749341E-02 
443	 1,34472557458339E-02 
444	 0,012877450390766 
445	 2,00730719276019E-02 
446	 2,42030746591454E-02 
447	 0,019362400090299 
448	 1,68919700074745E-02 
449	 1,71439455602479E-02 
450	 1,77231681067373E-02 
451	 1,72962655978424E-02 
452	 1,60814255392135E-02 
453	 1,79730107999492E-02 
454	 1,90289364798953E-02 
455	 1,58334254528676E-02 
456	 1,56293310417958E-02 
457	 1,81884207774276E-02 
458	 1,90935285958663E-02 
459	 1,97083416259541E-02 
460	 2,03138212474545E-02 
461	 1,97096263454244E-02 
462	 1,90159734907153E-02 
463	 1,98314676546668E-02 
464	 1,93597637507262E-02 
465	 1,73486469358502E-02 
466	 1,49126480579172E-02 
467	 1,52158318230989E-02 
468	 1,94637335956288E-02 
469	 1,83988576037649E-02 
470	 1,47972346043981E-02 
471	 1,69106609527407E-02 
472	 1,82836571909533E-02 
473	 1,76257300575526E-02 
474	 1,90142440386692E-02 
475	 2,05044953105012E-02 
476	 2,00112991574759E-02 
477	 1,79063741749804E-02 
478	 1,55739028402037E-02 
479	 1,64842145692965E-02 
480	 1,74504477461672E-02 
481	 1,69788645906281E-02 
482	 1,58524522349454E-02 
483	 1,53651734324697E-02 
484	 1,72440272720139E-02 
485	 1,92108947015117E-02 
486	 2,00564726362297E-02 
487	 1,79339192039578E-02 
488	 1,64454432641791E-02 
489	 1,81375401989071E-02 
490	 1,93920810430495E-02 
491	 1,90759687282098E-02 
492	 1,55739165086913E-02 
493	 1,43117459042129E-02 
494	 1,63561131243228E-02 
495	 0,015425678628162 
496	 0,014449471939861 
497	 1,71475371174859E-02 
498	 1,85212258351269E-02 
499	 1,80743709696761E-02 
500	 1,82321225928834E-02 
501	 1,72186504944914E-02 
502	 1,44990586344848E-02 
503	 1,35744146532626E-02 
504	 1,47029241836213E-02 
505	 0,017595653688979 
506	 0,019778094586649 
507	 2,01081103093745E-02 
508	 1,79254256171933E-02 
509	 1,54720281573924E-02 
510	 1,48084137228951E-02 
511	 1,54412629118277E-02 
512	 1,67305626280163E-02 
513	 1,73461770150154E-02 
514	 1,80929064771484E-02 
515	 1,88593448413381E-02 
516	 0,016799540771352 
517	 1,45223834212952E-02 
518	 1,59821976497277E-02 
519	 1,63472188800156E-02 
520	 1,53130922183143E-02 
521	 1,66439186150597E-02 
522	 1,78088617923645E-02 
523	 1,70642927438671E-02 
524	 1,66057603180755E-02 
525	 1,67608973063527E-02 
526	 0,017612933964632 
527	 1,75480429464585E-02 
528	 1,64184907633179E-02 
529	 1,68542616793598E-02 
530	 1,77722171243253E-02 
531	 1,77275890318283E-02 
532	 1,74117146419177E-02 
533	 1,70767606754092E-02 
534	 1,70500733457735E-02 
535	 1,69559404214914E-02 
536	 1,66156704334879E-02 
537	 1,65363213009421E-02 
538	 1,65223594266937E-02 
539	 1,60247140328597E-02 
540	 0,016157857436129 
541	 1,69015857552057E-02 
542	 1,63781274637737E-02 
543	 1,60744171878198E-02 
544	 1,74021574192403E-02 
545	 1,72966960533905E-02 
546	 1,60912293212349E-02 
547	 1,64670292346165E-02 
548	 1,71238724967908E-02 
549	 1,73777443220928E-02 
550	 1,69913260803374E-02 
551	 1,64516814498908E-02 
552	 1,65204862994056E-02 
553	 1,71833121946257E-02 
554	 1,81131836576831E-02 
555	 1,81292474326556E-02 
556	 1,77354104812572E-02 
557	 1,73821284947752E-02 
558	 1,68179108348426E-02 
559	 1,63471091137603E-02 
560	 1,68121753688889E-02 
561	 1,71131030152767E-02 
562	 1,68997541284107E-02 
563	 1,71543560742467E-02 
564	 0,017255433112441 
565	 1,62773063500358E-02 
566	 1,63401293953464E-02 
567	 1,73698174372974E-02 
568	 1,70045902703393E-02 
569	 0,016800899100559 
570	 1,77185307247676E-02 
571	 1,78825530359113E-02 
572	 1,74689756986604E-02 
573	 1,74598484548537E-02 
574	 1,76302660445416E-02 
575	 1,79870328130893E-02 
576	 1,89541668627091E-02 
577	 1,92747810823324E-02 
578	 1,76124387948479E-02 
579	 1,75040155917499E-02 
580	 1,89452133361447E-02 
581	 1,92634432328796E-02 
582	 1,90316549412776E-02 
583	 1,86064343119587E-02 
584	 1,83057155568579E-02 
585	 0,018447380519797 
586	 1,95877611054113E-02 
587	 1,94136739584958E-02 
588	 1,79114937882024E-02 
589	 1,84267778046966E-02 
590	 1,95871959861837E-02 
591	 1,99697973899361E-02 
592	 2,00763836742128E-02 
593	 1,99079657945362E-02 
594	 0,019180121423881 
595	 1,88268320418015E-02 
596	 1,92106472930951E-02 
597	 1,93626864481136E-02 
598	 1,93828723263728E-02 
599	 0,019591442592245 
600	 1,96930605074578E-02 
601	 1,96350041195993E-02 
602	 1,95230135757253E-02 
603	 1,94645265492707E-02 
604	 1,95578353534565E-02 
605	 2,00151255776729E-02 
606	 2,03919313563672E-02 
607	 1,95059256378786E-02 
608	 1,87302880653494E-02 
609	 1,85867106343044E-02 
610	 1,86502493056591E-02 
611	 1,87750121225169E-02 
612	 1,88248834353468E-02 
613	 0,018529836873024 
614	 0,018160073182125 
615	 0,018871504989881 
616	 1,94939176269421E-02 
617	 1,92700764136905E-02 
618	 1,85683878749236E-02 
619	 1,81166847782903E-02 
620	 1,93022369232062E-02 
621	 1,98634288076003E-02 
622	 1,93003756921511E-02 
623	 1,92233042770873E-02 
624	 1,93090294000261E-02 
625	 1,91480275242321E-02 
626	 1,93103791281956E-02 
627	 1,96144998991146E-02 
628	 1,92146912382788E-02 
629	 0,018705262881427 
630	 1,84638956197542E-02 
631	 0,018761632069049 
632	 0,019319839304003 
633	 0,019657750964418 
634	 1,97234584165931E-02 
635	 1,96160079733551E-02 
636	 1,98842822088196E-02 
637	 2,01429153786856E-02 
638	 2,00819392515129E-02 
639	 0,020254858971621 
640	 2,06415129571723E-02 
641	 2,10018121188469E-02 
642	 2,10384242181682E-02 
643	 0,02068427448995 
644	 2,03133867244289E-02 
645	 2,04559662078735E-02 
646	 2,17268797664233E-02 
647	 2,22231535936453E-02 
648	 2,16645435797035E-02 
649	 2,08828484186621E-02 
650	 2,05981563389164E-02 
651	 2,11921051903947E-02 
652	 2,13079344425006E-02 
653	 2,09795463505527E-02 
654	 2,06841555228657E-02 
655	 2,07072588243971E-02 
656	 2,10207241858288E-02 
657	 2,09200543120369E-02 
658	 2,04690604704053E-02 
659	 0,019810281457567 
660	 1,95399294375377E-02 
661	 0,01971551682575 
662	 2,02097365435927E-02 
663	 1,99855363857943E-02 
664	 1,87832351811257E-02 
665	 1,90009599437684E-02 
666	 1,96604279315866E-02 
667	 1,87622690071516E-02 
668	 1,86929132135084E-02 
669	 1,96584960032976E-02 
670	 1,98218094270337E-02 
671	 1,93634402511779E-02 
672	 0,018580586902858 
673	 1,88581513944797E-02 
674	 1,96846270464519E-02 
675	 1,92022052292269E-02 
676	 1,87196771730242E-02 
677	 1,87271592540945E-02 
678	 1,91655552719638E-02 
679	 1,95963718855053E-02 
680	 1,95150083367158E-02 
681	 1,93902861023091E-02 
682	 1,94246331892967E-02 
683	 1,99083187853764E-02 
684	 2,02291088739897E-02 
685	 2,00854975562767E-02 
686	 0,020241826931775 
687	 2,06100813447069E-02 
688	 2,08251414702254E-02 
689	 2,13296990090568E-02 
690	 2,20693562285312E-02 
691	 2,22322578177696E-02 
692	 2,23686512196559E-02 
693	 2,30125397998582E-02 
694	 2,41365866547849E-02 
695	 2,55245576320312E-02 
696	 2,66609655265638E-02 
697	 2,77892075932125E-02 
698	 2,90278878348761E-02 
699	 3,04487576277964E-02 
700	 3,21152583489912E-02 
701	 0,034092530645852 
702	 0,036093183518823 
703	 3,79619164770337E-02 
704	 3,95295374828112E-02 
705	 4,10197587104014E-02 
706	 4,25972093647332E-02 
707	 4,43009053899202E-02 
708	 4,60993478176839E-02 
709	 0,047939419206702 
710	 4,95331515387808E-02 
711	 0,050834602872706 
712	 5,21382112897261E-02 
713	 5,33612876554946E-02 
714	 5,44125447288488E-02 
715	 5,52495924584998E-02 
716	 5,59848798260631E-02 
717	 5,68977841196309E-02 
718	 5,78685506510279E-02 
719	 5,88216703844101E-02 
720	 5,95786404400805E-02 
721	 6,03726566846988E-02 
722	 0,061523014442827 
723	 6,20011392390805E-02 
724	 6,18706957831966E-02 
725	 6,21724758059213E-02 
726	 6,27249098128825E-02 
727	 6,33982830015688E-02 
728	 0,064034619049734 
729	 6,45594491626638E-02 
730	 6,49004103749085E-02 
731	 6,52525989535054E-02 
732	 6,56481215624486E-02 
733	 0,065932577738372 
734	 0,066153494749165 
735	 6,63593516497443E-02 
736	 6,65054140357987E-02 
737	 6,67704559504077E-02 
738	 0,067725901619866 
739	 6,80924205104429E-02 
740	 6,75755436733215E-02 
741	 6,75670546614786E-02 
742	 0,06790658453022 
743	 6,82648886884923E-02 
744	 6,84877295947673E-02 
745	 0,068565750872207 
746	 6,86359569287537E-02 
747	 6,87343090240102E-02 
748	 6,88792079803883E-02 
749	 6,89743896313635E-02 
750	 6,91392983713254E-02 
751	 0,069581198794178 
752	 6,98082163672293E-02 
753	 6,97922060666067E-02 
754	 6,99615182283387E-02 
755	 7,03274022751451E-02 
756	 7,08191372121117E-02 
757	 0,070703096675368 
758	 7,03127881114811E-02 
759	 7,05419105448618E-02 
760	 7,09166140388414E-02 
761	 7,12377491507484E-02 
762	 7,12688129068927E-02 
763	 7,14126784607536E-02 
764	 7,20179494212006E-02 
765	 7,22924848530677E-02 
766	 7,22506560608289E-02 
767	 7,23140561933457E-02 
768	 7,25325681583567E-02 
769	 7,28887092425021E-02 
770	 7,30805629983998E-02 
771	 7,30728918974752E-02 
772	 7,28739499015556E-02 
773	 7,31404652162812E-02 
774	 7,37637588170458E-02 
775	 0,073933937435767 
776	 7,40159274018783E-02 
777	 7,41752913426676E-02 
778	 7,42197405833984E-02 
779	 7,42742111781161E-02 
780	 7,45422133308756E-02 
781	 0,074775889363306 
782	 7,49218061031325E-02 
783	 7,50435578694323E-02 
784	 7,52018550440585E-02 
785	 7,54205350103747E-02 
786	 7,55147289489365E-02 
787	 7,56022816437954E-02 
788	 0,07594751892242 
789	 7,61614366672226E-02 
790	 7,61848268044574E-02 
791	 7,62953760692384E-02 
792	 7,64662356662228E-02 
793	 7,66673176534508E-02 
794	 7,68376475760721E-02 
795	 7,70685423221922E-02 
796	 7,76139926412997E-02 
797	 7,79192131571283E-02 
798	 7,78906934266754E-02 
799	 7,81042778301514E-02 
800	 7,83035669219406E-02 
801	 7,82483403182899E-02 
802	 7,83879796260615E-02 
803	 7,86951485669302E-02 
804	 7,88843240519304E-02 
805	 7,90633943612871E-02 
806	 7,92586923528433E-02 
807	 7,94435964453484E-02 
808	 7,96059967710332E-02 
809	 7,97432813059643E-02 
810	 8,00414089447069E-02 
811	 0,080478357939915 
812	 8,09097496730852E-02 
813	 8,12223174120773E-02 
814	 8,13416491661247E-02 
815	 8,11771626004062E-02 
816	 8,11725041493086E-02 
817	 8,18278342125494E-02 
818	 8,22416049794537E-02 
819	 8,23266164275289E-02 
820	 8,24834526376754E-02 
821	 0,082686577100905 
822	 0,082944757072664 
823	 8,33114395940209E-02 
824	 0,083597223426634 
825	 8,35671456409091E-02 
826	 8,37574176806505E-02 
827	 8,41450871939419E-02 
828	 8,42389727867477E-02 
829	 8,41949326480386E-02 
830	 8,41664727691784E-02 
831	 8,46455767813313E-02 
832	 8,50821241347976E-02 
833	 8,46718602944019E-02 
834	 8,55357491926833E-02 
835	 8,72755336399137E-02 
836	 0,086864396123524 
837	 8,62747410302113E-02 
838	 8,65545969762608E-02 
839	 8,69014717893481E-02 
840	 0,087340309339413 
841	 8,80132598471925E-02 
842	 8,78487577494003E-02 
843	 0,087140450842178 
844	 8,77585012698308E-02 
845	 8,85592338171115E-02 
846	 8,88758528821368E-02 
847	 8,87938299738636E-02 
848	 8,86981591112871E-02 
849	 8,91132963786582E-02 
850	 8,94386391824325E-02 
851	 8,95531989848384E-02 
852	 8,95848166552644E-02 
853	 8,96245670597679E-02 
854	 8,97585422523015E-02 
855	 0,090114865206822 
856	 9,05899721013431E-02 
857	 9,10241081353892E-02 
858	 9,12303540453338E-02 
859	 9,12247377783413E-02 
860	 9,12106805731312E-02 
861	 9,13091559868297E-02 
862	 9,15719381936344E-02 
863	 9,17865462564814E-02 
864	 9,20695977338627E-02 
865	 9,25933087842352E-02 
866	 9,29707870048745E-02 
867	 9,32036595000606E-02 
868	 9,37091263397909E-02 
869	 9,36149937677313E-02 
870	 0,092829336911883 
871	 9,34937416101028E-02 
872	 9,45098724529279E-02 
873	 9,43609905555406E-02 
874	 9,45658351173634E-02 
875	 9,52300693876101E-02 
876	 9,57010933514393E-02 
877	 9,61644943468315E-02 
878	 9,66697450764099E-02 
879	 9,72106614471792E-02 
880	 9,75098278139004E-02 
881	 9,73083305807901E-02 
882	 0,097273026836123 
883	 9,75096502665927E-02 
884	 9,78380342344744E-02 
885	 0,0984748112345 
886	 9,93767952450429E-02 
887	 0,100066590622139 
888	 0,100282855286378 
889	 9,99391984495342E-02 
890	 0,100736287806872 
891	 0,102043560229516 
892	 0,101808055931372 
893	 0,101412427234161 
894	 0,101323626552939 
895	 0,101497146182513 
896	 0,101728805545261 
897	 0,101840092309186 
898	 0,101718501858964 
899	 0,101780892708182 
900	 0,102802979346999 
901	 0,103481545524869 
902	 0,103456349351872 
903	 0,102885989469382 
904	 0,102840648193068 
905	 0,103848078286775 
906	 0,104485539562134 
907	 0,10459419947313 
908	 0,10423582316005 
909	 0,104088170735365 
910	 0,104481380532594 
911	 0,105934385084394 
912	 0,106498696228041 
913	 0,105619082301298 
914	 0,106087904491237 
915	 0,107186529454979 
916	 0,107815070737276 
917	 0,107787214051431 
918	 0,107385921168092 
919	 0,107469689843722 
920	 0,107515156730413 
921	 0,107529939598259 
922	 0,108374123534451 
923	 0,108984924686777 
924	 0,108614967045254 
925	 0,109414157165125 
926	 0,110679249379766 
927	 0,110575409501781 
928	 0,110131769616536 
929	 0,109790816752402 
930	 0,109959324566156 
931	 0,110606785853445 
932	 0,111574053565592 
933	 0,112135612294934 
934	 0,112041958460246 
935	 0,111179661427652 
936	 0,112030032652692 
937	 0,113779403013337 
938	 0,112341283192234 
939	 0,111904309530473 
940	 0,113517390385971 
941	 0,113749032128392 
942	 0,113556576968034 
943	 0,113878265879722 
944	 0,113608819858482 
945	 0,113027263971789 
946	 0,112904280351433 
947	 0,113587236375709 
948	 0,114606482450195 
949	 0,113942796537817 
950	 0,112923054728855 
951	 0,112518744513213 
952	 0,113631465829397 
953	 0,114384137132723 
954	 0,112605879252166 
955	 0,11288829827618 
956	 0,114792156425049 
957	 0,114799535028552 
958	 0,113444584347511 
959	 0,111629652669927 
960	 0,112713365787931 
961	 0,11446127514206 
962	 0,115014837393989 
963	 0,114918780774442 
964	 0,114422636582231 
965	 0,113834720958114 
966	 0,114365353016961 
967	 0,115580353035651 
968	 0,115151576180785 
969	 0,114478464180857 
970	 0,1143976805967 
971	 0,116154439545801 
972	 0,116780862988937 
973	 0,114030101620407 
974	 0,114366688965847 
975	 0,116741867570383 
976	 0,117326580002438 
977	 0,116517956630629 
978	 0,115252026323301 
979	 0,116687287035123 
980	 0,117457417643318 
981	 0,11677764873644 
982	 0,120894042052467 
983	 0,123736871348045 
984	 0,119463334087043 
985	 0,118700382406816 
986	 0,121125191403782 
987	 0,12221415187027 
988	 0,121881975846132 
989	 0,120614961421906 
990	 0,120724207999834 
991	 0,121238896776759 
992	 0,121783291481763 
993	 0,123143020080497 
994	 0,125069461298788 
995	 0,127027412542395 
996	 0,126033147018477 
997	 0,124006107732745 
998	 0,125763253703578 
999	 0,126188584666223 
1000	 0,125145539786514 
1001	 0,127684145572462 
1002	 0,128780205348732 
1003	 0,126705803648609 
1004	 0,127041136992839 
1005	 0,128471548227304 
1006	 0,129314116734727 
1007	 0,130671575586768 
1008	 0,131605486327335 
1009	 0,130296522372179 
1010	 0,129166816791411 
1011	 0,128460448365016 
1012	 0,125835623423952 
1013	 0,127808884265009 
1014	 0,134870279028856 
1015	 0,134290017772305 
1016	 0,13125318280105 
1017	 0,130839699630218 
1018	 0,131408103513859 
1019	 0,133104077475288 
1020	 0,136226358687917 
1021	 0,13501224868143 
1022	 0,131817380985316 
1023	 0,137312794199606 
1024	 0,140891963410895 
1025	 0,139948183195232 
1026	 0,140780198326232 
1027	 0,139612306674987 
1028	 0,135385693055033 
1029	 0,138738059130551 
1030	 0,144355273488204 
1031	 0,144903142689279 
1032	 0,143961799312215 
1033	 0,143681950288059 
1034	 0,147172507188622 
1035	 0,147534379493602 
1036	 0,143873422292212 
1037	 0,139694083782937 
1038	 0,141457495459073 
1039	 0,14923229193105 
1040	 0,146985423079027 
1041	 0,141948914706673 
1042	 0,141220272190429 
1043	 0,144454115038335 
1044	 0,148145295638045 
1045	 0,147569220202376 
1046	 0,146696147030302 
1047	 0,150155363534395 
1048	 0,167288272544898 
1049	 0,165411061260379 
1050	 0,145661973167403 
1051	 0,155808659406141 
1052	 0,160135934969896 
1053	 0,145551711943817 
1054	 0,144208669545237 
1055	 0,151954209743189 
1056	 0,161578908527046 
1057	 0,163704642467264 
1058	 0,157645321390735 
1059	 0,145845363036022 
1060	 0,147471564541119 
1061	 0,157011592424506 
1062	 0,152267662838683 
1063	 0,148038154154796 
1064	 0,149128702352626 
1065	 0,156322132352065 
1066	 0,165052733442745 
1067	 0,168585346144107 
1068	 0,144088369348733 
1069	 0,134912377767888 
1070	 0,167771324256971 
1071	 0,16617959473362 
1072	 0,1568941485959 
1073	 0,177183219757684 
1074	 0,183721116742522 
1075	 0,173189716595864 
