Wavelength	SCORFF200668.asd
325	 0,351344290923665 
326	 0,297137084476975 
327	 0,297520026692414 
328	 0,355267516626887 
329	 0,432915657030309 
330	 0,445835976127912 
331	 0,343091208363175 
332	 0,264530151726454 
333	 0,259091425948309 
334	 0,349327327159805 
335	 0,394701995583145 
336	 0,346875271055599 
337	 0,336205904089189 
338	 0,291065640897868 
339	 0,161922612618337 
340	 0,203501514052971 
341	 0,313104715152028 
342	 0,243413097216341 
343	 0,226897216373219 
344	 0,293180160598272 
345	 0,25988031431686 
346	 0,196441976096716 
347	 0,178982034851563 
348	 0,174747914820632 
349	 0,183418783768249 
350	 0,227434575438335 
351	 0,248490127496333 
352	 0,222885382604739 
353	 0,194215083283757 
354	 0,173309802186835 
355	 0,170974999804012 
356	 0,199792720244197 
357	 0,229658311424907 
358	 0,18423968907103 
359	 0,172567517550471 
360	 0,22482953016349 
361	 0,182693162237023 
362	 0,12432130154833 
363	 0,18924513354459 
364	 0,216058395753076 
365	 0,192354086801435 
366	 0,197246515172318 
367	 0,198799745228453 
368	 0,179650776394227 
369	 0,16056302939711 
370	 0,153701746816278 
371	 0,17855679765387 
372	 0,188241556558162 
373	 0,179820623821062 
374	 0,201509948903428 
375	 0,217884567499802 
376	 0,206312031034705 
377	 0,208851933254889 
378	 0,218437143077784 
379	 0,207370687589489 
380	 0,188051522482046 
381	 0,170891147533289 
382	 0,188574191108341 
383	 0,201344452802081 
384	 0,175535187123957 
385	 0,168007797130063 
386	 0,180436226081008 
387	 0,190774592198908 
388	 0,191771085785794 
389	 0,181951849878985 
390	 0,174177300991505 
391	 0,169635526250289 
392	 0,169161795406783 
393	 0,168586277362688 
394	 0,169791676838603 
395	 0,184696595101752 
396	 0,184598367730628 
397	 0,161094727846454 
398	 0,160835644398026 
399	 0,17519295367119 
400	 0,184642955774853 
401	 0,180630821173333 
402	 0,166506729604829 
403	 0,162164277896342 
404	 0,168897901563642 
405	 0,184415656358564 
406	 0,18517289067304 
407	 0,176230067361398 
408	 0,174257135119434 
409	 0,173279441014805 
410	 0,172161141463967 
411	 0,172822547921177 
412	 0,171265826316914 
413	 0,164420260291128 
414	 0,165812963123987 
415	 0,17293846800234 
416	 0,174494616983649 
417	 0,171511813077103 
418	 0,165617480089023 
419	 0,163879690964643 
420	 0,165349099153033 
421	 0,167930168624984 
422	 0,170441614225817 
423	 0,17209322734091 
424	 0,172206477295673 
425	 0,171493404708184 
426	 0,170438985744492 
427	 0,169095506451552 
428	 0,167991440475759 
429	 0,167889235191474 
430	 0,168018593331267 
431	 0,168327559549334 
432	 0,169863804507401 
433	 0,170823614167865 
434	 0,169775913307421 
435	 0,170099533505457 
436	 0,17163267221659 
437	 0,172721493076699 
438	 0,172225342946567 
439	 0,169982522558866 
440	 0,168646482261936 
441	 0,167430444736571 
442	 0,164998497339642 
443	 0,166011581888359 
444	 0,169534946913499 
445	 0,168895424993409 
446	 0,167455753797935 
447	 0,167395663927834 
448	 0,168422509674887 
449	 0,16996723302522 
450	 0,171080339023222 
451	 0,171722742925716 
452	 0,171905470602107 
453	 0,171849182023436 
454	 0,172185849920433 
455	 0,173327069205 
456	 0,172114793103366 
457	 0,170026460772375 
458	 0,172918770230425 
459	 0,174088863607252 
460	 0,171286606880159 
461	 0,169362382963458 
462	 0,169282293366042 
463	 0,171647200352427 
464	 0,171510735302555 
465	 0,169111801401346 
466	 0,170008573982079 
467	 0,171815128422613 
468	 0,172727615889756 
469	 0,172020187807683 
470	 0,170676541171455 
471	 0,170833205402293 
472	 0,171016066808915 
473	 0,171114205506299 
474	 0,173124358580131 
475	 0,174019383779678 
476	 0,170983223207487 
477	 0,169311997600084 
478	 0,169605330550577 
479	 0,170423159326783 
480	 0,170383357602176 
481	 0,169163472663143 
482	 0,170034184459708 
483	 0,171367387799547 
484	 0,17030208490362 
485	 0,169280058063328 
486	 0,169200481298922 
487	 0,170528631906598 
488	 0,172851417195522 
489	 0,175397731500236 
490	 0,173927134183009 
491	 0,170617707827909 
492	 0,172254676270048 
493	 0,17208721818001 
494	 0,168847780944294 
495	 0,168619731940669 
496	 0,169950634751695 
497	 0,170693042156965 
498	 0,171878914018632 
499	 0,173067681066414 
500	 0,17270176622984 
501	 0,17122201585304 
502	 0,169338546871402 
503	 0,170172827201559 
504	 0,172507228420677 
505	 0,173614850951943 
506	 0,174059605160321 
507	 0,173867396443561 
508	 0,172841051667409 
509	 0,17169856199473 
510	 0,171122472712774 
511	 0,171510302332889 
512	 0,172329945644934 
513	 0,172090262108253 
514	 0,171717459898399 
515	 0,171543447155697 
516	 0,170971764427838 
517	 0,170509482910794 
518	 0,170924091592468 
519	 0,170945341316457 
520	 0,170764693094928 
521	 0,172506239212652 
522	 0,173580175526374 
523	 0,172355176179285 
524	 0,172573002903597 
525	 0,174060390731162 
526	 0,175307056166009 
527	 0,175328805740839 
528	 0,174031500496119 
529	 0,173294565077075 
530	 0,173211629060253 
531	 0,173679164775066 
532	 0,173150601426657 
533	 0,171977260316647 
534	 0,172452460262199 
535	 0,173082261807978 
536	 0,173016419149711 
537	 0,172954024333485 
538	 0,173042994477804 
539	 0,173411509948745 
540	 0,173613663080729 
541	 0,173597670546328 
542	 0,173939418748259 
543	 0,174033675055952 
544	 0,173332727579411 
545	 0,173361169136024 
546	 0,174097870500899 
547	 0,174613317382626 
548	 0,174892221277486 
549	 0,174943599609473 
550	 0,175085576465355 
551	 0,17548511844185 
552	 0,176369134082479 
553	 0,176573212794526 
554	 0,176105628805086 
555	 0,176540983788927 
556	 0,176885426988897 
557	 0,176303880248194 
558	 0,175326338005219 
559	 0,174516769740821 
560	 0,175029915970735 
561	 0,175405070453549 
562	 0,175113336856799 
563	 0,174987237585455 
564	 0,174882167824817 
565	 0,174505306339955 
566	 0,17485349558646 
567	 0,175781720980493 
568	 0,1758497717526 
569	 0,175923768233369 
570	 0,176526084712209 
571	 0,17641049010589 
572	 0,176125929720046 
573	 0,177287752333696 
574	 0,178346449919244 
575	 0,178797738324178 
576	 0,179175468689234 
577	 0,179452840746095 
578	 0,179578386427354 
579	 0,18005275401957 
580	 0,18078722139292 
581	 0,181210651291966 
582	 0,181157783388259 
583	 0,180736757700638 
584	 0,181690638314159 
585	 0,182993513615315 
586	 0,182446587798627 
587	 0,181944186525908 
588	 0,182113499883976 
589	 0,182943607413974 
590	 0,183788628986373 
591	 0,184060063655677 
592	 0,184363236499117 
593	 0,184701563853937 
594	 0,184734979758125 
595	 0,18482819528553 
596	 0,185109497600476 
597	 0,18518384534657 
598	 0,185183553575469 
599	 0,185367531625395 
600	 0,185539708603193 
601	 0,185570349515263 
602	 0,185167206425417 
603	 0,184833156567796 
604	 0,184953556334123 
605	 0,185196617150192 
606	 0,185203715701519 
607	 0,184173972054407 
608	 0,183569374458493 
609	 0,183763729947209 
610	 0,183186285535217 
611	 0,18267074892004 
612	 0,183379451281074 
613	 0,183150357610672 
614	 0,182012917741837 
615	 0,181870331208439 
616	 0,182118384789858 
617	 0,182299284785391 
618	 0,181814701885566 
619	 0,181383597883341 
620	 0,182690558249779 
621	 0,18340790354329 
622	 0,182987923240421 
623	 0,182932287731498 
624	 0,182833906781697 
625	 0,182229973813359 
626	 0,182265708797339 
627	 0,18275803478948 
628	 0,18234982666038 
629	 0,182370599652214 
630	 0,183319601720301 
631	 0,183637107781677 
632	 0,183334972299175 
633	 0,182709858454104 
634	 0,182626133423263 
635	 0,18321963072942 
636	 0,183812542962946 
637	 0,184047838158081 
638	 0,183711236827598 
639	 0,183828792860455 
640	 0,184522276045915 
641	 0,185685778573904 
642	 0,186373379803005 
643	 0,186255383538929 
644	 0,186103684813463 
645	 0,186365374329186 
646	 0,187507152111713 
647	 0,187662851871926 
648	 0,186679750621869 
649	 0,185757800782686 
650	 0,185315560772337 
651	 0,185534421973279 
652	 0,185157655042167 
653	 0,184448651348912 
654	 0,184367038660238 
655	 0,184258444084178 
656	 0,183890540351349 
657	 0,183280951491107 
658	 0,182455556118261 
659	 0,181473126883476 
660	 0,181059130708682 
661	 0,181046166721907 
662	 0,180527485084638 
663	 0,179693712285815 
664	 0,178739739713661 
665	 0,178340185356146 
666	 0,178368612150964 
667	 0,178503452463274 
668	 0,178506207871953 
669	 0,178233972681061 
670	 0,177516817466876 
671	 0,176916152384707 
672	 0,176885490016089 
673	 0,177187450246402 
674	 0,177538668250606 
675	 0,177375199122169 
676	 0,177323145421607 
677	 0,177514856601499 
678	 0,177211069749204 
679	 0,177136523225316 
680	 0,178184072346265 
681	 0,178714098460555 
682	 0,178607039797488 
683	 0,178826434209608 
684	 0,179087200019624 
685	 0,179314058339526 
686	 0,180161706438948 
687	 0,181345829293174 
688	 0,182198266156835 
689	 0,183366587774109 
690	 0,184964967964991 
691	 0,186589405626367 
692	 0,188360268564217 
693	 0,190426865573949 
694	 0,193196865841506 
695	 0,19637315470274 
696	 0,199015746889178 
697	 0,201828376747625 
698	 0,205074938138872 
699	 0,208457291419447 
700	 0,212043411706821 
701	 0,215956863137828 
702	 0,219710350269803 
703	 0,223194994135921 
704	 0,226547733836346 
705	 0,229941268145632 
706	 0,233431751762574 
707	 0,236437893782044 
708	 0,239293291570202 
709	 0,242806626506481 
710	 0,245745596934974 
711	 0,247943661481194 
712	 0,250468053857211 
713	 0,25314118176943 
714	 0,255727858682037 
715	 0,257918239560117 
716	 0,259715157810483 
717	 0,261288808426644 
718	 0,262847202952147 
719	 0,264502898234656 
720	 0,266177926631804 
721	 0,267861188338236 
722	 0,269555772350747 
723	 0,270627155836455 
724	 0,271186368395975 
725	 0,272132628532225 
726	 0,273091513749927 
727	 0,273852135542573 
728	 0,274635079958974 
729	 0,275449815761736 
730	 0,27626879385089 
731	 0,277025397930677 
732	 0,277682460009173 
733	 0,278192769449295 
734	 0,278740392946576 
735	 0,279452202649072 
736	 0,27975213477079 
737	 0,279902497368651 
738	 0,280934859627169 
739	 0,281314892460859 
740	 0,280733057538089 
741	 0,280973814672082 
742	 0,28161204014487 
743	 0,281982634630323 
744	 0,282123827388814 
745	 0,282129526728584 
746	 0,282291993065841 
747	 0,282578747566334 
748	 0,282910729529188 
749	 0,282766301713024 
750	 0,282667475361477 
751	 0,283519326985108 
752	 0,283840922189075 
753	 0,283551706281933 
754	 0,284022146199221 
755	 0,284542534155514 
756	 0,284605006597463 
757	 0,284625918473401 
758	 0,284826134055314 
759	 0,285552663084678 
760	 0,286050060319999 
761	 0,286103902143486 
762	 0,286023789578124 
763	 0,286155346282279 
764	 0,286766257294751 
765	 0,287056828641034 
766	 0,287126215607367 
767	 0,287700723340814 
768	 0,288088642063722 
769	 0,288072026832894 
770	 0,288082832771665 
771	 0,288219969787414 
772	 0,288546420491916 
773	 0,288822768990956 
774	 0,288996553770418 
775	 0,28912180716382 
776	 0,289190129805385 
777	 0,289197054705273 
778	 0,289143323656964 
779	 0,289001734222884 
780	 0,288721193754214 
781	 0,288845925345772 
782	 0,289310083045054 
783	 0,289316434368965 
784	 0,2893349466789 
785	 0,289616991377063 
786	 0,289507111944818 
787	 0,289268051713088 
788	 0,289541151146151 
789	 0,289530731175331 
790	 0,289173450889924 
791	 0,289207446271819 
792	 0,289446945539553 
793	 0,289727219492968 
794	 0,290136534345931 
795	 0,290527289881636 
796	 0,290582758858766 
797	 0,290612737914884 
798	 0,290749144947046 
799	 0,291070706269258 
800	 0,29132026807547 
801	 0,291275121728355 
802	 0,29132777454827 
803	 0,291530125466729 
804	 0,291841985936672 
805	 0,291995644091648 
806	 0,291937745159212 
807	 0,291986111436176 
808	 0,292261622789081 
809	 0,292830967619811 
810	 0,29297660602988 
811	 0,292775201359284 
812	 0,29289016410625 
813	 0,293028878034067 
814	 0,293068649858156 
815	 0,292970974469477 
816	 0,292890616808472 
817	 0,293012995421185 
818	 0,293280125140006 
819	 0,293624907474396 
820	 0,293958659309566 
821	 0,293963794533827 
822	 0,293627068245149 
823	 0,293951340453978 
824	 0,294374647139267 
825	 0,29406659596355 
826	 0,294544355536233 
827	 0,29557846278711 
828	 0,29526363395989 
829	 0,295008463929156 
830	 0,295459735371541 
831	 0,295704021323279 
832	 0,295759519742574 
833	 0,295781470550029 
834	 0,296297115583789 
835	 0,29708893206288 
836	 0,296972559010546 
837	 0,296994719924826 
838	 0,2976064556637 
839	 0,297654112208336 
840	 0,297576546725655 
841	 0,29815744722243 
842	 0,298211891197941 
843	 0,297692886673115 
844	 0,297432756491831 
845	 0,297354924722377 
846	 0,297433181754659 
847	 0,297722360605282 
848	 0,297800846034587 
849	 0,297095849279302 
850	 0,297301282163436 
851	 0,298226328275132 
852	 0,297780076443141 
853	 0,297184494831561 
854	 0,297070884815941 
855	 0,296878199521273 
856	 0,296796935725957 
857	 0,297144498445721 
858	 0,297255346839283 
859	 0,296968831222981 
860	 0,296256734716043 
861	 0,296096176235121 
862	 0,296822191608767 
863	 0,296827009991083 
864	 0,296722686567847 
865	 0,297500047595793 
866	 0,297559536911233 
867	 0,297059260536445 
868	 0,297664241259604 
869	 0,29825592586887 
870	 0,298347513948007 
871	 0,298420392170128 
872	 0,298545546519097 
873	 0,298763970453358 
874	 0,299325916043819 
875	 0,300049767020255 
876	 0,300237521666953 
877	 0,30062164583764 
878	 0,301406097663586 
879	 0,301867830308082 
880	 0,302239555956003 
881	 0,302798289194565 
882	 0,302825161306787 
883	 0,302521058652585 
884	 0,302727324413792 
885	 0,303190153967949 
886	 0,30376691331041 
887	 0,304182087380948 
888	 0,304346849969887 
889	 0,30423529832173 
890	 0,304316526794918 
891	 0,304527337237288 
892	 0,304484357915758 
893	 0,304757758074731 
894	 0,305318458064271 
895	 0,305276933435884 
896	 0,304874844575036 
897	 0,30437890048192 
898	 0,304046396010466 
899	 0,304178751462038 
900	 0,305246685306703 
901	 0,305293375397239 
902	 0,304196345987391 
903	 0,303819551853498 
904	 0,303759055775474 
905	 0,30378196637085 
906	 0,304153295902283 
907	 0,304363300928853 
908	 0,303693153255806 
909	 0,302937016917387 
910	 0,302504744779192 
911	 0,302993289923803 
912	 0,303267507310516 
913	 0,302931695390428 
914	 0,303163549854225 
915	 0,303806800432786 
916	 0,304531858445955 
917	 0,304615621103894 
918	 0,304452630434323 
919	 0,30559432301933 
920	 0,305753196763937 
921	 0,30462200356039 
922	 0,304765689776287 
923	 0,305237469560361 
924	 0,305223314295878 
925	 0,305758596323245 
926	 0,306516811894298 
927	 0,30670341823366 
928	 0,306051789455191 
929	 0,305086252775071 
930	 0,305884449081267 
931	 0,307275323418327 
932	 0,308361304432325 
933	 0,308348956626984 
934	 0,307927295149458 
935	 0,308117127731277 
936	 0,309103940546292 
937	 0,310093637971604 
938	 0,308633593172396 
939	 0,307829403031256 
940	 0,308622192128044 
941	 0,308959515600691 
942	 0,309344459512906 
943	 0,310133323402354 
944	 0,309194648269538 
945	 0,307832158884868 
946	 0,309093293868874 
947	 0,309690869035805 
948	 0,309042600987442 
949	 0,308696116372588 
950	 0,308413779100251 
951	 0,308193621736593 
952	 0,30893023641466 
953	 0,309092730479629 
954	 0,306938843372536 
955	 0,306776171587289 
956	 0,308237034254104 
957	 0,308013903348357 
958	 0,307057250438163 
959	 0,306014393972419 
960	 0,306538788858034 
961	 0,307159781097077 
962	 0,306843038949863 
963	 0,307296525158076 
964	 0,308046170078094 
965	 0,308053565894085 
966	 0,30750650052063 
967	 0,306932203209234 
968	 0,308008892326883 
969	 0,307734612170769 
970	 0,305565926198765 
971	 0,306144999404937 
972	 0,306620504186798 
973	 0,30461067162346 
974	 0,30637728343437 
975	 0,309591516575237 
976	 0,308345567808667 
977	 0,306879703133711 
978	 0,306530569450074 
979	 0,307817793658485 
980	 0,308226107918175 
981	 0,307258379642223 
982	 0,310285305833675 
983	 0,312788274442872 
984	 0,310278234255644 
985	 0,309837520638106 
986	 0,311466150130149 
987	 0,312641396064327 
988	 0,311870174223792 
989	 0,309808743703334 
990	 0,310691158481258 
991	 0,311990584133998 
992	 0,312489775286024 
993	 0,313364122360865 
994	 0,314718860984516 
995	 0,316327722944909 
996	 0,314663352758102 
997	 0,311906868920738 
998	 0,313485390944125 
999	 0,314983883787306 
1000	 0,315669405079925 
1001	 0,317887592426462 
1002	 0,318106805700574 
1003	 0,315402431904909 
1004	 0,315125941353751 
1005	 0,316621204118476 
1006	 0,318666474042456 
1007	 0,320306928543462 
1008	 0,321222321004354 
1009	 0,321333314666517 
1010	 0,321385342017613 
1011	 0,320765712771102 
1012	 0,316022872522861 
1013	 0,31528310157641 
1014	 0,320580267708346 
1015	 0,32250609442667 
1016	 0,320921363488167 
1017	 0,316984852051318 
1018	 0,317810250025708 
1019	 0,320387417408245 
1020	 0,318702603971013 
1021	 0,3193281349523 
1022	 0,322945463281813 
1023	 0,327693418750462 
1024	 0,328670564189233 
1025	 0,325328606120804 
1026	 0,324399075937583 
1027	 0,323745411582468 
1028	 0,322458818849794 
1029	 0,324983064007484 
1030	 0,327679388464813 
1031	 0,326146681344169 
1032	 0,325458082610735 
1033	 0,326047744303103 
1034	 0,326592256589962 
1035	 0,330696923190681 
1036	 0,336230516639717 
1037	 0,332377802377962 
1038	 0,32876181124848 
1039	 0,328913243605216 
1040	 0,325507434709751 
1041	 0,324255374301501 
1042	 0,328469562611233 
1043	 0,322066890815785 
1044	 0,314826367022129 
1045	 0,322463217547181 
1046	 0,329293793751458 
1047	 0,333412450512205 
1048	 0,338394292719628 
1049	 0,340984333013725 
1050	 0,340332671393071 
1051	 0,336319146331505 
1052	 0,331622177384171 
1053	 0,328662459801984 
1054	 0,331631374339552 
1055	 0,336602674937225 
1056	 0,339774776179717 
1057	 0,343410949024176 
1058	 0,344732251958871 
1059	 0,339943168552506 
1060	 0,343643124060481 
1061	 0,351286910972168 
1062	 0,345663270502255 
1063	 0,341536591236756 
1064	 0,341852228573841 
1065	 0,340258333417941 
1066	 0,338871864847626 
1067	 0,337991006752085 
1068	 0,333465497717443 
1069	 0,33385503742638 
1070	 0,344098319232589 
1071	 0,350093786673843 
1072	 0,350809279305114 
1073	 0,347039482249183 
1074	 0,341354435860351 
1075	 0,335436778369098 
