Wavelength	SCORFF200762.asd
325	 0,190544694586693 
326	 0,157574717901799 
327	 0,112807929772967 
328	 8,02733916017588E-02 
329	 0,154971298251979 
330	 0,197219004611319 
331	 0,120786058024552 
332	 0,185994337660157 
333	 0,292698642655897 
334	 0,187132749451449 
335	 0,128679786888961 
336	 0,182138520253274 
337	 0,11396882694386 
338	 4,10967856566643E-02 
339	 0,122518107884872 
340	 0,170297195092478 
341	 0,154388588212982 
342	 6,58804932896525E-02 
343	 8,45020039363285E-02 
344	 0,200452260883879 
345	 0,15550054505814 
346	 7,75305352382711E-02 
347	 0,097782990482818 
348	 0,101296297571151 
349	 9,37376709966663E-02 
350	 0,150034433979824 
351	 0,154396479747264 
352	 7,87351002595931E-02 
353	 4,54146672314854E-02 
354	 0,045502308598333 
355	 6,59545778816077E-02 
356	 8,37198394716636E-02 
357	 8,97095657470307E-02 
358	 0,090632812335708 
359	 0,086259022597262 
360	 7,41208918194709E-02 
361	 0,033166162232086 
362	 9,95060482403575E-03 
363	 7,11990719782707E-02 
364	 8,71600139847858E-02 
365	 5,45497358826252E-02 
366	 6,48741502789033E-02 
367	 6,82319081748839E-02 
368	 3,92649643847995E-02 
369	 3,12513346145633E-02 
370	 3,82708043209223E-02 
371	 3,76086206158087E-02 
372	 2,45312448113654E-02 
373	 1,00007497849301E-02 
374	 5,04412455658973E-02 
375	 0,075281767925566 
376	 4,07375919764642E-02 
377	 4,33783877740544E-02 
378	 7,18394691066689E-02 
379	 7,27332651189226E-02 
380	 5,77503314850151E-02 
381	 3,67789674497044E-02 
382	 0,04744685946901 
383	 6,19180042632941E-02 
384	 5,40644481464232E-02 
385	 3,28228789567835E-02 
386	 1,35443943971279E-02 
387	 2,90567561794367E-02 
388	 4,59797045298681E-02 
389	 4,97329518421216E-02 
390	 4,80628667753149E-02 
391	 4,35656435238659E-02 
392	 0,039030910115942 
393	 2,95070053223994E-02 
394	 2,22284322887976E-02 
395	 4,49880882686966E-02 
396	 5,32999270856768E-02 
397	 3,14121869903423E-02 
398	 3,29499788150701E-02 
399	 4,66300895421326E-02 
400	 4,78155810026467E-02 
401	 4,03662044700838E-02 
402	 2,77670620538049E-02 
403	 1,57532069490728E-02 
404	 0,019357036151071 
405	 4,39165637503306E-02 
406	 4,34849662524682E-02 
407	 0,029724402439493 
408	 3,93388674579306E-02 
409	 4,75321035944541E-02 
410	 4,68848813289973E-02 
411	 3,85437825760885E-02 
412	 2,86852128917043E-02 
413	 0,023205774161279 
414	 2,85136849686334E-02 
415	 3,84118583482097E-02 
416	 3,60152648071732E-02 
417	 3,13204799869676E-02 
418	 2,83644838127556E-02 
419	 2,35816838058121E-02 
420	 2,22874777460474E-02 
421	 3,14039929232932E-02 
422	 3,61618018977198E-02 
423	 3,46956578843653E-02 
424	 3,34827407107985E-02 
425	 3,23645892581831E-02 
426	 3,10979954326953E-02 
427	 2,76445595512429E-02 
428	 0,024160179223806 
429	 2,45627078810339E-02 
430	 2,68792098469876E-02 
431	 2,97580962609958E-02 
432	 3,09703676555908E-02 
433	 2,97477145856483E-02 
434	 2,59658636061579E-02 
435	 2,64299964792865E-02 
436	 2,99514618446657E-02 
437	 3,04863245977561E-02 
438	 3,02641535368326E-02 
439	 3,00552833517676E-02 
440	 2,95199962036117E-02 
441	 2,95378649565163E-02 
442	 3,11827151791328E-02 
443	 3,08534277728591E-02 
444	 2,88991917570578E-02 
445	 0,029695030220014 
446	 2,97225544547202E-02 
447	 2,73719427289831E-02 
448	 2,84016167453073E-02 
449	 3,15253773376981E-02 
450	 3,30318912114523E-02 
451	 3,35971650716309E-02 
452	 3,35111671121772E-02 
453	 3,39418310527404E-02 
454	 3,33907493275386E-02 
455	 3,06071358194393E-02 
456	 2,87503381055081E-02 
457	 2,84836309803475E-02 
458	 2,99133537819162E-02 
459	 3,03201352142436E-02 
460	 2,88072777060885E-02 
461	 2,79039952535739E-02 
462	 2,87104092367405E-02 
463	 3,23400241728699E-02 
464	 3,13583100538625E-02 
465	 2,66226244666431E-02 
466	 2,80568915443878E-02 
467	 3,02954023018783E-02 
468	 2,98154658985281E-02 
469	 2,94528840672248E-02 
470	 2,92954843157751E-02 
471	 2,86941086809588E-02 
472	 2,86561180583597E-02 
473	 2,93349653662356E-02 
474	 2,96236794801569E-02 
475	 3,04628712905796E-02 
476	 3,26541229643094E-02 
477	 0,032040613453267 
478	 0,029700896777838 
479	 3,11684525841023E-02 
480	 3,16681364698249E-02 
481	 2,95109517317769E-02 
482	 2,92290313342395E-02 
483	 3,01544429637393E-02 
484	 3,05361580570825E-02 
485	 3,25939659007242E-02 
486	 3,49234144701024E-02 
487	 2,99943301470716E-02 
488	 2,67798733975251E-02 
489	 3,14631575466473E-02 
490	 3,24278380933699E-02 
491	 3,04400286625944E-02 
492	 3,17938996387999E-02 
493	 3,25077859445418E-02 
494	 3,13794686982835E-02 
495	 2,89181587352553E-02 
496	 2,79580104176366E-02 
497	 3,14647455393054E-02 
498	 0,032354883074051 
499	 3,05525439221635E-02 
500	 3,13345803022559E-02 
501	 3,15931139293204E-02 
502	 2,98697830176938E-02 
503	 2,89487520550966E-02 
504	 2,91929684714248E-02 
505	 3,05902683181804E-02 
506	 3,20163405531418E-02 
507	 3,27094128965597E-02 
508	 3,13781803130894E-02 
509	 3,00224332686246E-02 
510	 3,04200308452256E-02 
511	 3,07470491288119E-02 
512	 3,07324557349659E-02 
513	 3,04940318165535E-02 
514	 3,09252856187804E-02 
515	 3,19920762743397E-02 
516	 3,07295430435131E-02 
517	 2,90324385654273E-02 
518	 2,98827595033161E-02 
519	 3,09896061027876E-02 
520	 3,17429253990909E-02 
521	 3,23933295450458E-02 
522	 3,22994020867713E-02 
523	 3,11969900552288E-02 
524	 3,13037188346927E-02 
525	 3,23666835161406E-02 
526	 3,31048066328896E-02 
527	 3,33119995800675E-02 
528	 3,29263568595363E-02 
529	 3,23992460614038E-02 
530	 3,20851219130156E-02 
531	 3,23155168566013E-02 
532	 3,18039639008219E-02 
533	 3,08445905051864E-02 
534	 3,11783150219889E-02 
535	 3,21756979816541E-02 
536	 3,32945249622012E-02 
537	 3,33656544615114E-02 
538	 3,28748150857071E-02 
539	 3,30360435182783E-02 
540	 0,033018973106595 
541	 3,27705376189242E-02 
542	 3,32050049404434E-02 
543	 3,34675319612627E-02 
544	 0,032761575582266 
545	 3,29433897642438E-02 
546	 3,38071239512454E-02 
547	 0,033773007992154 
548	 3,32787389814043E-02 
549	 3,26796389901459E-02 
550	 3,29967870549293E-02 
551	 3,36187994223384E-02 
552	 3,34004145244418E-02 
553	 3,35123957902917E-02 
554	 3,40825300036426E-02 
555	 3,42874193635979E-02 
556	 3,43725961046727E-02 
557	 3,45349692737906E-02 
558	 3,43731785040732E-02 
559	 3,40672377607822E-02 
560	 3,42506544628463E-02 
561	 0,034268422645573 
562	 3,39556789282497E-02 
563	 3,41069910951189E-02 
564	 3,40433947062803E-02 
565	 3,27787314774107E-02 
566	 3,30299458617176E-02 
567	 3,46535858499687E-02 
568	 3,45652500501621E-02 
569	 3,42452996661424E-02 
570	 0,034665552977747 
571	 3,45914648335438E-02 
572	 0,034312162482969 
573	 3,48539967533657E-02 
574	 3,52474579008299E-02 
575	 3,53313955378491E-02 
576	 3,62394156957166E-02 
577	 3,69398675842794E-02 
578	 3,62423956546176E-02 
579	 3,57417931876466E-02 
580	 3,58195201023336E-02 
581	 3,65165603143969E-02 
582	 3,65349619769847E-02 
583	 3,53869640903945E-02 
584	 3,56095686029629E-02 
585	 3,67758209070968E-02 
586	 3,76392536519217E-02 
587	 0,037354197391459 
588	 3,62966919095426E-02 
589	 3,75888072751956E-02 
590	 3,90715770777886E-02 
591	 0,03865585063669 
592	 3,79810369728618E-02 
593	 3,74780518953089E-02 
594	 3,73364644079223E-02 
595	 3,74562026330013E-02 
596	 3,77878012776316E-02 
597	 3,83992570473075E-02 
598	 3,88138740044412E-02 
599	 3,83388393179824E-02 
600	 3,79676692408483E-02 
601	 3,79200261018478E-02 
602	 3,78068699704592E-02 
603	 3,76728998097192E-02 
604	 3,75995771500861E-02 
605	 3,81820999132902E-02 
606	 3,88484759759744E-02 
607	 3,79817416454919E-02 
608	 3,70514146590589E-02 
609	 3,66576711329652E-02 
610	 3,66462892248906E-02 
611	 3,68197809295204E-02 
612	 3,69431960323838E-02 
613	 3,68165591495045E-02 
614	 3,66091682706054E-02 
615	 3,71382377025559E-02 
616	 3,74924073604543E-02 
617	 3,70853138301666E-02 
618	 3,61495776590797E-02 
619	 3,55643220384779E-02 
620	 3,70691212007557E-02 
621	 3,77777515379971E-02 
622	 3,70205197675819E-02 
623	 0,036682081840166 
624	 3,67094357003289E-02 
625	 3,69232462957206E-02 
626	 3,71005997396843E-02 
627	 3,71421606421212E-02 
628	 3,69867057238864E-02 
629	 3,66923722432673E-02 
630	 3,63868313831019E-02 
631	 3,66229613766389E-02 
632	 3,72110850810188E-02 
633	 3,77852515198419E-02 
634	 3,76185034613493E-02 
635	 3,69048615063881E-02 
636	 3,74049751341831E-02 
637	 0,038183158742025 
638	 3,84010778484893E-02 
639	 3,84156325201931E-02 
640	 3,85139039348063E-02 
641	 3,93308684416328E-02 
642	 3,99197612655721E-02 
643	 0,039920475559932 
644	 3,97921717290727E-02 
645	 0,039690508992475 
646	 3,97586502370026E-02 
647	 3,95139777342243E-02 
648	 3,90321278769733E-02 
649	 3,89483785764049E-02 
650	 3,91767763772619E-02 
651	 3,95518027099099E-02 
652	 3,91002329448534E-02 
653	 3,83801718308462E-02 
654	 3,88966071827387E-02 
655	 3,89256823403151E-02 
656	 3,81211134967052E-02 
657	 3,78223089656301E-02 
658	 3,75638735173492E-02 
659	 3,68074665173775E-02 
660	 3,61926861455884E-02 
661	 3,59055628229704E-02 
662	 3,61417651514126E-02 
663	 3,59662572735686E-02 
664	 3,51013757023352E-02 
665	 3,53230876014883E-02 
666	 0,036005514942011 
667	 0,035870984149442 
668	 3,55427489873602E-02 
669	 0,035313588194425 
670	 3,57212846837822E-02 
671	 3,58942631163207E-02 
672	 0,035216089118531 
673	 0,035173991858901 
674	 3,55864350298744E-02 
675	 3,53572402080905E-02 
676	 3,52725726722461E-02 
677	 3,54700501816876E-02 
678	 3,50304902013151E-02 
679	 3,47383066738338E-02 
680	 3,55754582195941E-02 
681	 0,035977954824226 
682	 3,58547298838386E-02 
683	 3,62183653732019E-02 
684	 3,64848884467855E-02 
685	 3,64034548749834E-02 
686	 3,68275107195195E-02 
687	 3,75434950387434E-02 
688	 3,79967060300749E-02 
689	 3,81939440264954E-02 
690	 3,83473850042292E-02 
691	 3,93127680100429E-02 
692	 4,07042598378582E-02 
693	 4,21141005817452E-02 
694	 4,32566200204131E-02 
695	 4,43360809891891E-02 
696	 4,59976357990409E-02 
697	 4,80253606475884E-02 
698	 5,03025868867506E-02 
699	 5,26717861633017E-02 
700	 5,49729614501712E-02 
701	 5,70441699395364E-02 
702	 5,89907808481936E-02 
703	 6,10488303195193E-02 
704	 6,39532092465186E-02 
705	 6,65855434692793E-02 
706	 6,82917418998461E-02 
707	 7,00831215298654E-02 
708	 7,20204542541634E-02 
709	 0,073928114079823 
710	 7,57482516016353E-02 
711	 7,74557244827268E-02 
712	 7,91057824072108E-02 
713	 8,05425059290105E-02 
714	 8,16376013659278E-02 
715	 8,27000031731469E-02 
716	 8,37477772454025E-02 
717	 8,46337508236518E-02 
718	 8,55039656260244E-02 
719	 8,64155010046922E-02 
720	 8,72870549421483E-02 
721	 8,81466955427126E-02 
722	 8,90424785631508E-02 
723	 8,96775972175322E-02 
724	 9,00530997020829E-02 
725	 0,090438669152557 
726	 9,07584538321032E-02 
727	 9,09858232142088E-02 
728	 9,12221142315767E-02 
729	 9,15688829778699E-02 
730	 9,21839421818209E-02 
731	 0,092724604375606 
732	 9,30847494582788E-02 
733	 9,33916587880323E-02 
734	 0,093556517274563 
735	 9,35257264036293E-02 
736	 9,36056367041934E-02 
737	 9,39380384301154E-02 
738	 9,48214688923586E-02 
739	 9,51761755293131E-02 
740	 0,094757737434482 
741	 9,48267044421926E-02 
742	 9,51952831601677E-02 
743	 9,55160216287133E-02 
744	 9,55664555578282E-02 
745	 9,54299112408532E-02 
746	 9,55476385940054E-02 
747	 0,095742866259004 
748	 9,59223630354368E-02 
749	 9,61020636161107E-02 
750	 9,62726705589237E-02 
751	 9,64247851680851E-02 
752	 9,65462366197434E-02 
753	 9,66436163995797E-02 
754	 9,67492397098228E-02 
755	 0,096872014813017 
756	 9,70070316233216E-02 
757	 0,096999469223372 
758	 9,70496279068865E-02 
759	 9,76317923138123E-02 
760	 9,80603171976529E-02 
761	 9,81262250580126E-02 
762	 9,80045784643888E-02 
763	 9,81211813305937E-02 
764	 9,88091637279251E-02 
765	 9,90457502499202E-02 
766	 9,88219522298978E-02 
767	 9,85739615686432E-02 
768	 9,88033406858443E-02 
769	 9,95086461152585E-02 
770	 9,92588879783151E-02 
771	 9,87894052058609E-02 
772	 9,90951968091719E-02 
773	 9,94853729658546E-02 
774	 9,98427982339081E-02 
775	 0,100366657358595 
776	 0,100565581875202 
777	 0,100254204671288 
778	 0,100072555181659 
779	 0,100133158699566 
780	 0,100477847084586 
781	 0,100660911497025 
782	 0,100611780323007 
783	 0,100526066487786 
784	 0,100760914148994 
785	 0,101420171489212 
786	 0,101230867103709 
787	 0,100726895356213 
788	 0,101190249675427 
789	 0,101483865690421 
790	 0,101402430558309 
791	 0,101600059978251 
792	 0,101687575174005 
793	 0,101424303618353 
794	 0,101840917245102 
795	 0,102555068130634 
796	 0,102399253385007 
797	 0,102126064972572 
798	 0,102045051913868 
799	 0,102381156208121 
800	 0,102676779704543 
801	 0,102526075061531 
802	 0,102645873926359 
803	 0,102946422819892 
804	 0,102816029555566 
805	 0,102881436788572 
806	 0,10326423707788 
807	 0,103309123622746 
808	 0,103238713055908 
809	 0,103341625391296 
810	 0,103588831716889 
811	 0,103893383974823 
812	 0,104087433494046 
813	 0,103894655696078 
814	 0,103416619406266 
815	 0,10400827008793 
816	 0,104768084656125 
817	 0,104517874875581 
818	 0,104438658467183 
819	 0,104673232368906 
820	 0,104893619966223 
821	 0,104757468563657 
822	 0,104224325536622 
823	 0,104186504721463 
824	 0,104532472244439 
825	 0,104985652287318 
826	 0,10536447357686 
827	 0,10556481147239 
828	 0,105519355777126 
829	 0,105297461411588 
830	 0,10502449483064 
831	 0,105195952370893 
832	 0,105435696087143 
833	 0,105164372517947 
834	 0,105479547879315 
835	 0,106230721355808 
836	 0,106056405681131 
837	 0,105712670315984 
838	 0,105650313358321 
839	 0,105910857414385 
840	 0,106276356530549 
841	 0,106431404079214 
842	 0,10631322173744 
843	 0,105960259627447 
844	 0,10547458314113 
845	 0,105484689424967 
846	 0,106164355393083 
847	 0,106052120373334 
848	 0,105635574631204 
849	 0,105833057438988 
850	 0,106116779483311 
851	 0,106329867842501 
852	 0,106439668910255 
853	 0,106246746412263 
854	 0,105778017918646 
855	 0,105962973287754 
856	 0,106379040076291 
857	 0,106311436689471 
858	 0,106269258261917 
859	 0,106302318289208 
860	 0,106160075662825 
861	 0,106162981675123 
862	 0,106374964930125 
863	 0,105999296377943 
864	 0,105645060906226 
865	 0,106180269396614 
866	 0,106564837959105 
867	 0,106660111596309 
868	 0,10696730936259 
869	 0,106650486281982 
870	 0,105604604780366 
871	 0,105716748615426 
872	 0,106287977866715 
873	 0,106277695320975 
874	 0,106550841763407 
875	 0,10704143589732 
876	 0,107066138745579 
877	 0,10708493826621 
878	 0,107302127180811 
879	 0,107700380089773 
880	 0,10810765398067 
881	 0,108308646692025 
882	 0,107702919762317 
883	 0,106784324310205 
884	 0,107143229768884 
885	 0,107443058437473 
886	 0,107394749411999 
887	 0,108163292190764 
888	 0,108781197737679 
889	 0,108379394317761 
890	 0,1085400423466 
891	 0,108958028053368 
892	 0,108276266818521 
893	 0,108058816703827 
894	 0,108584571118762 
895	 0,108739902077751 
896	 0,108487347363575 
897	 0,10785469892263 
898	 0,107022074219786 
899	 0,106604607835897 
900	 0,107609187130484 
901	 0,107869871496402 
902	 0,107282369595802 
903	 0,108186450476849 
904	 0,108463482553334 
905	 0,107128484064699 
906	 0,107296043927429 
907	 0,108186236699797 
908	 0,108156774690841 
909	 0,107433274310047 
910	 0,106689946401764 
911	 0,107982552626019 
912	 0,108878773146707 
913	 0,108326411657513 
914	 0,107611688027386 
915	 0,107280912026044 
916	 0,107754928886183 
917	 0,107838453228391 
918	 0,107520714048899 
919	 0,107419044736556 
920	 0,107513701093914 
921	 0,107698564902199 
922	 0,107413532713441 
923	 0,107075712634211 
924	 0,107098898150198 
925	 0,107854206340721 
926	 0,108474964237283 
927	 0,107329675361961 
928	 0,106553140120938 
929	 0,106708781650538 
930	 0,107438817072861 
931	 0,107725583740989 
932	 0,107143115831115 
933	 0,107447795905901 
934	 0,107721287247004 
935	 0,106635003234537 
936	 0,10762012627743 
937	 0,109673056361319 
938	 0,107787359089103 
939	 0,106087666268069 
940	 0,106123069199441 
941	 0,107081865635701 
942	 0,107474845589704 
943	 0,106221394925954 
944	 0,106188845257159 
945	 0,106719682622866 
946	 0,105661007223756 
947	 0,10556295748131 
948	 0,106210073010129 
949	 0,104140778510113 
950	 0,101814358326515 
951	 0,100892445207822 
952	 0,101909176811747 
953	 0,103107283043702 
954	 0,102371737130759 
955	 0,101370610953844 
956	 0,100596006262264 
957	 0,100305591428935 
958	 0,100342939477443 
959	 0,100463446285044 
960	 9,98660685563702E-02 
961	 9,93573348279824E-02 
962	 9,95288675294239E-02 
963	 9,98337520391411E-02 
964	 9,96173562769334E-02 
965	 9,80522137102074E-02 
966	 9,80638211748181E-02 
967	 9,95980867372805E-02 
968	 0,100218918673271 
969	 9,96773021532878E-02 
970	 9,83537952419144E-02 
971	 9,94320767320142E-02 
972	 9,97538210364432E-02 
973	 9,67325703196141E-02 
974	 9,64747863472427E-02 
975	 9,78707348237332E-02 
976	 9,70091322704723E-02 
977	 9,78029486239428E-02 
978	 9,99013953458496E-02 
979	 9,83543849287988E-02 
980	 0,097624850847996 
981	 9,95070420665912E-02 
982	 0,100711447678937 
983	 0,100485809320219 
984	 9,86747728070731E-02 
985	 9,93163025147047E-02 
986	 0,101640106811724 
987	 0,102717830178721 
988	 0,101151970203839 
989	 9,82759345024106E-02 
990	 0,100814475555901 
991	 0,101963696337343 
992	 9,93948132523759E-02 
993	 0,10244339574094 
994	 0,105678083959673 
995	 0,103138800889374 
996	 0,101222344924495 
997	 0,101577767664733 
998	 0,105055410435823 
999	 0,106652290194722 
1000	 0,105702754957667 
1001	 0,105726553831624 
1002	 0,10590640356831 
1003	 0,105800892483545 
1004	 0,104917318251915 
1005	 0,104208199795559 
1006	 0,104778766956844 
1007	 0,108163748969428 
1008	 0,111639478095686 
1009	 0,110152657221258 
1010	 0,108109484037597 
1011	 0,106563534652729 
1012	 0,104275789861253 
1013	 0,104824324195673 
1014	 0,108493707219049 
1015	 0,108180878041575 
1016	 0,106955174581543 
1017	 0,107791046891302 
1018	 0,110136752133326 
1019	 0,111988215863776 
1020	 0,110587754578926 
1021	 0,108787758351991 
1022	 0,108257897304105 
1023	 0,111850892756668 
1024	 0,111573420753721 
1025	 0,106986644422911 
1026	 0,109672254613215 
1027	 0,113253221333293 
1028	 0,113507561179969 
1029	 0,113600742180243 
1030	 0,114278157246415 
1031	 0,115973199950654 
1032	 0,117398856278451 
1033	 0,118176291405551 
1034	 0,118192567849303 
1035	 0,117344063175515 
1036	 0,115549030513886 
1037	 0,111919128797078 
1038	 0,112363551509817 
1039	 0,117474908909239 
1040	 0,115568624955483 
1041	 0,111527104440919 
1042	 0,110415166268893 
1043	 0,113656002128333 
1044	 0,118012401594937 
1045	 0,118760836431989 
1046	 0,119226038322552 
1047	 0,122769336351541 
1048	 0,135909906066222 
1049	 0,136068970481998 
1050	 0,122488956284538 
1051	 0,121053355337609 
1052	 0,122531120876643 
1053	 0,1227179784846 
1054	 0,12532786306369 
1055	 0,12746822783856 
1056	 0,126743918304084 
1057	 0,126542212224803 
1058	 0,124554147279892 
1059	 0,117640337040475 
1060	 0,121335353152665 
1061	 0,129267422046177 
1062	 0,119899133509592 
1063	 0,111939863509911 
1064	 0,112011797381777 
1065	 0,122661140556916 
1066	 0,127555926624791 
1067	 0,119453421958967 
1068	 0,10162852486404 
1069	 0,101355678906917 
1070	 0,132396205133153 
1071	 0,135072987647197 
1072	 0,128826256446456 
1073	 0,141136881309541 
1074	 0,136641969260915 
1075	 0,117309225968301 
