Wavelength	SCORFF200122.asd
325	 0,572739862797514 
326	 0,5742604452577 
327	 0,603667844794241 
328	 0,636926552904503 
329	 0,694364609384111 
330	 0,671599611111247 
331	 0,498139143327428 
332	 0,415099883861399 
333	 0,440027121613483 
334	 0,499260850161776 
335	 0,494047909992135 
336	 0,425472359557059 
337	 0,45680188360425 
338	 0,452728382984546 
339	 0,279270442848974 
340	 0,323909597532023 
341	 0,466592059334772 
342	 0,387177648787184 
343	 0,379496582015496 
344	 0,475473498161038 
345	 0,437766851380814 
346	 0,370145027785593 
347	 0,38051066412988 
348	 0,378535412890593 
349	 0,375310265547764 
350	 0,450562111454417 
351	 0,467326187521155 
352	 0,390552895045101 
353	 0,376296594652278 
354	 0,396424561680099 
355	 0,412562814070352 
356	 0,402190054354199 
357	 0,372815458889158 
358	 0,353789399024874 
359	 0,355167540271109 
360	 0,374872411994161 
361	 0,352856515105882 
362	 0,327807713022762 
363	 0,365538139429606 
364	 0,375326779828528 
365	 0,356341787669362 
366	 0,376300191682818 
367	 0,391267364570032 
368	 0,374975669921771 
369	 0,33758681349969 
370	 0,308358416419711 
371	 0,342312217661983 
372	 0,370742221942466 
373	 0,373909358894422 
374	 0,357494786957244 
375	 0,343996293259369 
376	 0,34852188224651 
377	 0,362623517381779 
378	 0,375878639299981 
379	 0,372161457961118 
380	 0,368452358231168 
381	 0,371771080075705 
382	 0,387680525393509 
383	 0,394200485856682 
384	 0,374449829674589 
385	 0,366931598474353 
386	 0,371906017079964 
387	 0,368978470818403 
388	 0,371302524911679 
389	 0,379781784613475 
390	 0,372919685704275 
391	 0,366007487209927 
392	 0,379146251817013 
393	 0,371796992787222 
394	 0,34990789252232 
395	 0,359065963206016 
396	 0,36691650097797 
397	 0,359607971011352 
398	 0,358981025703483 
399	 0,363242217201158 
400	 0,366793515373211 
401	 0,361984414327095 
402	 0,351517449470717 
403	 0,351223924180128 
404	 0,356762564530845 
405	 0,36348521532518 
406	 0,360454846324926 
407	 0,354122223550154 
408	 0,360707602376842 
409	 0,366866151296228 
410	 0,368583358357951 
411	 0,36857263736072 
412	 0,363514890035271 
413	 0,351230607971704 
414	 0,351306053554854 
415	 0,360207027610123 
416	 0,360035741987528 
417	 0,360865210685565 
418	 0,364502352537054 
419	 0,35714679179444 
420	 0,349363218031481 
421	 0,355805354736262 
422	 0,359754710315687 
423	 0,358307216585721 
424	 0,355673723533907 
425	 0,352948419838248 
426	 0,351171478786735 
427	 0,35321348732579 
428	 0,355472751371447 
429	 0,350456221700589 
430	 0,351110732972602 
431	 0,357809870063403 
432	 0,354955591577327 
433	 0,350300908877924 
434	 0,350986195192062 
435	 0,350506762703908 
436	 0,348969665540931 
437	 0,349378122436224 
438	 0,350326834512546 
439	 0,350959305933907 
440	 0,349712392130809 
441	 0,348322541210718 
442	 0,349101515606867 
443	 0,349037613255623 
444	 0,3484072683642 
445	 0,350747568026468 
446	 0,352631138050699 
447	 0,351834058914013 
448	 0,348551770382356 
449	 0,345739747733885 
450	 0,348529751402001 
451	 0,352663788465066 
452	 0,35578019212496 
453	 0,354211177282752 
454	 0,352113518061691 
455	 0,353329099839952 
456	 0,35402920034756 
457	 0,353192373359762 
458	 0,349276668477881 
459	 0,349544522215552 
460	 0,355674717998735 
461	 0,356771648382731 
462	 0,355537489705392 
463	 0,357015949575845 
464	 0,35620134172231 
465	 0,353533882570716 
466	 0,354351680798434 
467	 0,356524926332167 
468	 0,358370358336558 
469	 0,359048172067659 
470	 0,358474035380179 
471	 0,356732498928534 
472	 0,355006416576808 
473	 0,354302662297193 
474	 0,356751396510999 
475	 0,358946824064774 
476	 0,357617646336371 
477	 0,35693766428111 
478	 0,357479305403234 
479	 0,358403623417511 
480	 0,359091820125925 
481	 0,359109945776223 
482	 0,357875699485869 
483	 0,35714205068026 
484	 0,359545966565229 
485	 0,360368502601423 
486	 0,359107696224349 
487	 0,358969235199366 
488	 0,359756764940419 
489	 0,361075057249857 
490	 0,360848252495403 
491	 0,359489744767952 
492	 0,358564162974018 
493	 0,358592699055936 
494	 0,359382168198798 
495	 0,358375262241139 
496	 0,357246215250586 
497	 0,358047215123223 
498	 0,35850161790197 
499	 0,358376626713832 
500	 0,35846476633813 
501	 0,359278725632006 
502	 0,360919424658404 
503	 0,361608224953949 
504	 0,361845178727385 
505	 0,362855925491811 
506	 0,364750172746403 
507	 0,366790942424531 
508	 0,365835877071334 
509	 0,36399377330123 
510	 0,363342331011173 
511	 0,363950821451098 
512	 0,365189634302983 
513	 0,365412287678021 
514	 0,365480261112838 
515	 0,365618938912958 
516	 0,36479350545252 
517	 0,364191900050179 
518	 0,365552712523112 
519	 0,366690076083668 
520	 0,367321363726106 
521	 0,368847566031473 
522	 0,369751846625821 
523	 0,369086748244049 
524	 0,369021303279377 
525	 0,369660963647909 
526	 0,37059399075173 
527	 0,370526797152784 
528	 0,369351236851198 
529	 0,369290459633718 
530	 0,369803619816818 
531	 0,370067015308673 
532	 0,369064990657141 
533	 0,367440669867003 
534	 0,367920263418671 
535	 0,36868130568253 
536	 0,368635062206713 
537	 0,368221122640782 
538	 0,36792555170932 
539	 0,368613669738031 
540	 0,368564391020852 
541	 0,367687074532104 
542	 0,368170598221307 
543	 0,369127495786305 
544	 0,369599005041025 
545	 0,370111230122765 
546	 0,370645495899525 
547	 0,370987780528155 
548	 0,370994909234075 
549	 0,370683984532208 
550	 0,37066538077178 
551	 0,370892500889177 
552	 0,371157799365365 
553	 0,371735611817583 
554	 0,372373859471028 
555	 0,371952252316803 
556	 0,371108187123375 
557	 0,370390004332698 
558	 0,369309673176458 
559	 0,368247949080027 
560	 0,368259481364052 
561	 0,368482410827708 
562	 0,368553012158269 
563	 0,368681265178775 
564	 0,368544102440324 
565	 0,367707090217745 
566	 0,367597110722348 
567	 0,368444804640846 
568	 0,369656659724409 
569	 0,370637325326198 
570	 0,371032213782893 
571	 0,371852013386895 
572	 0,373083761475607 
573	 0,374409350914788 
574	 0,37533061655203 
575	 0,375825169637622 
576	 0,377048189169955 
577	 0,378061055519736 
578	 0,377774719786347 
579	 0,377937151015805 
580	 0,379043282301944 
581	 0,381354494826058 
582	 0,383091268545962 
583	 0,383411178407413 
584	 0,384696011040043 
585	 0,386495330467729 
586	 0,387469669101061 
587	 0,388369280953239 
588	 0,389482444490268 
589	 0,391133436320186 
590	 0,392594941222968 
591	 0,393211872801612 
592	 0,394004121701184 
593	 0,394760157954549 
594	 0,39427744116761 
595	 0,39381864439178 
596	 0,394064526981021 
597	 0,395077690455101 
598	 0,396308228702345 
599	 0,396991771963315 
600	 0,396679139576849 
601	 0,395520650631451 
602	 0,394541774207826 
603	 0,39413102552806 
604	 0,394514657017173 
605	 0,394914891682371 
606	 0,394773703914233 
607	 0,392991150745642 
608	 0,39194900699531 
609	 0,392257022886079 
610	 0,391382995660843 
611	 0,390274924598951 
612	 0,390339564741143 
613	 0,389996319483958 
614	 0,389206952897948 
615	 0,389189466001119 
616	 0,389132611744082 
617	 0,388574824058302 
618	 0,388266704444954 
619	 0,388294568055481 
620	 0,388640375594636 
621	 0,388819771284065 
622	 0,388699053585504 
623	 0,388630006199063 
624	 0,388466074492172 
625	 0,38807207920046 
626	 0,388448418727343 
627	 0,389220379190789 
628	 0,388632298151224 
629	 0,38818218029854 
630	 0,388601549025884 
631	 0,389157296401641 
632	 0,389655427688597 
633	 0,389906798940196 
634	 0,390555773185197 
635	 0,391624593960092 
636	 0,392383466973527 
637	 0,39300855210957 
638	 0,393679518407658 
639	 0,394435795838348 
640	 0,395353177667619 
641	 0,39662638523327 
642	 0,397777730189174 
643	 0,398568164075163 
644	 0,399046353775709 
645	 0,399259787516064 
646	 0,399272218922789 
647	 0,398930256776733 
648	 0,398299661546103 
649	 0,397659345979894 
650	 0,397125180952702 
651	 0,396683898915805 
652	 0,395417235999686 
653	 0,393793063234691 
654	 0,393047439030843 
655	 0,392260123699061 
656	 0,39113514376931 
657	 0,389787467542782 
658	 0,388448271973192 
659	 0,387331989244463 
660	 0,385784167182496 
661	 0,38397881080529 
662	 0,382825834256902 
663	 0,381629402370625 
664	 0,380092904465874 
665	 0,378720018511439 
666	 0,37761099912697 
667	 0,376815025047378 
668	 0,376166749399531 
669	 0,37553072206933 
670	 0,374588915227524 
671	 0,373894236635481 
672	 0,373858432324711 
673	 0,373817470580345 
674	 0,373690317893328 
675	 0,373595631132433 
676	 0,3735286088955 
677	 0,373500252878323 
678	 0,37349531142926 
679	 0,373701598062151 
680	 0,374330379759737 
681	 0,374825239163562 
682	 0,37525381428629 
683	 0,376272976911089 
684	 0,377422240056059 
685	 0,378522024959058 
686	 0,38036846199772 
687	 0,382817496425462 
688	 0,385423467374281 
689	 0,388336213961456 
690	 0,391662551089858 
691	 0,395679281239195 
692	 0,400173675962767 
693	 0,404987611954309 
694	 0,410803175606479 
695	 0,41747964152101 
696	 0,424400083153242 
697	 0,431563288525742 
698	 0,438961189407857 
699	 0,446713271350768 
700	 0,454866082147769 
701	 0,463472228233281 
702	 0,472164432359513 
703	 0,480610216339278 
704	 0,488265523786674 
705	 0,49557071932863 
706	 0,502820465069892 
707	 0,509975849067891 
708	 0,51685922184676 
709	 0,523126488921251 
710	 0,528981471129762 
711	 0,534550688566567 
712	 0,540045228750572 
713	 0,545173373712771 
714	 0,549665278858482 
715	 0,553754789602325 
716	 0,557556763592683 
717	 0,561211754790247 
718	 0,564706542349951 
719	 0,567983912466144 
720	 0,570675538334876 
721	 0,573171107397469 
722	 0,576007939482078 
723	 0,57848148154232 
724	 0,580338817851842 
725	 0,58130356782285 
726	 0,582322919157049 
727	 0,583976595027743 
728	 0,585665915935438 
729	 0,587181296687104 
730	 0,588327513689163 
731	 0,589246102751356 
732	 0,59001255706351 
733	 0,590711712098868 
734	 0,591436452527594 
735	 0,592243688685091 
736	 0,592771556371813 
737	 0,59327736059562 
738	 0,594703056570576 
739	 0,595416431850252 
740	 0,595028018441168 
741	 0,595243905250009 
742	 0,595634668197974 
743	 0,595554159104446 
744	 0,595744472284627 
745	 0,596232536340401 
746	 0,596570181470167 
747	 0,596955316526972 
748	 0,597425416420426 
749	 0,597510525744296 
750	 0,597505312032738 
751	 0,597948992990697 
752	 0,598162261413093 
753	 0,598132949779318 
754	 0,598537765229843 
755	 0,599030171155047 
756	 0,599319363878392 
757	 0,59916534592954 
758	 0,599061771532866 
759	 0,600097624934208 
760	 0,601001361536246 
761	 0,601379740425493 
762	 0,601597710837723 
763	 0,601854115085541 
764	 0,602314563846914 
765	 0,602794144041909 
766	 0,603185285845061 
767	 0,603305351200081 
768	 0,603452344108691 
769	 0,603712113632048 
770	 0,603813133059201 
771	 0,603818158538606 
772	 0,603828651722852 
773	 0,603949635164008 
774	 0,604077886014325 
775	 0,603795292477073 
776	 0,603607652993235 
777	 0,603734393456283 
778	 0,603711009013949 
779	 0,603535167512261 
780	 0,603283615311279 
781	 0,603060191673506 
782	 0,602906658711386 
783	 0,602829649979913 
784	 0,602742343918026 
785	 0,602600248078186 
786	 0,602529187511477 
787	 0,602577892967977 
788	 0,6028154026979 
789	 0,602827438240069 
790	 0,602667396890102 
791	 0,603179407840895 
792	 0,603530087440726 
793	 0,603129301852129 
794	 0,603291652095418 
795	 0,603875265317424 
796	 0,60412899261158 
797	 0,604166341285496 
798	 0,604066758489547 
799	 0,604081849500548 
800	 0,604370348688584 
801	 0,604994873947876 
802	 0,604883404302647 
803	 0,60431076662639 
804	 0,604442813370593 
805	 0,604980822971541 
806	 0,605658803514885 
807	 0,605563113910889 
808	 0,605279886986774 
809	 0,605488395706082 
810	 0,605479626690707 
811	 0,605331337811678 
812	 0,605755135806906 
813	 0,605596310280617 
814	 0,604643421068403 
815	 0,604774076877856 
816	 0,605238677949717 
817	 0,604976131364811 
818	 0,604981399158851 
819	 0,60533608749472 
820	 0,605663905255099 
821	 0,605831189575274 
822	 0,60576314618902 
823	 0,605559953694909 
824	 0,60533216880702 
825	 0,605206789596225 
826	 0,605892548350059 
827	 0,607068216725846 
828	 0,60723257836417 
829	 0,607157025686674 
830	 0,607263134297119 
831	 0,607554225974914 
832	 0,607878050674189 
833	 0,608018946548611 
834	 0,608197677545903 
835	 0,608515328722891 
836	 0,609180771883877 
837	 0,609497870817144 
838	 0,609204544788687 
839	 0,60947109270934 
840	 0,609762863366846 
841	 0,609157849500903 
842	 0,60892170214947 
843	 0,609071113226518 
844	 0,608426410229676 
845	 0,608355717077027 
846	 0,609343976240504 
847	 0,609215889858353 
848	 0,608427883731051 
849	 0,607977583983755 
850	 0,608105205247238 
851	 0,608483002499431 
852	 0,607760330680082 
853	 0,606952644231205 
854	 0,606588451957054 
855	 0,60613691279056 
856	 0,605829382216286 
857	 0,606034758332578 
858	 0,605844181609582 
859	 0,605325483311968 
860	 0,605463798829529 
861	 0,605662548950031 
862	 0,605605620908334 
863	 0,605357366975418 
864	 0,605237475916833 
865	 0,605633925041276 
866	 0,605682822016322 
867	 0,605556855975091 
868	 0,606467701100886 
869	 0,607230474438541 
870	 0,607384383546159 
871	 0,607913472331861 
872	 0,608474496460079 
873	 0,6085832100361 
874	 0,609286017279713 
875	 0,610410521948687 
876	 0,610819273703278 
877	 0,611052394152059 
878	 0,611395477777169 
879	 0,612217603095925 
880	 0,612775614705247 
881	 0,61231017185234 
882	 0,612305807024465 
883	 0,612779093636033 
884	 0,612907363772893 
885	 0,61318101706446 
886	 0,613619405642653 
887	 0,613506169318926 
888	 0,613304009568683 
889	 0,613463365620691 
890	 0,613587332419535 
891	 0,613457856077431 
892	 0,612698793933523 
893	 0,612448651825761 
894	 0,612880832270627 
895	 0,61295875935054 
896	 0,612657324726412 
897	 0,611985269820254 
898	 0,610873610127697 
899	 0,610045609778605 
900	 0,610767511279913 
901	 0,610717776654717 
902	 0,609694827605275 
903	 0,609675462179202 
904	 0,609844561663372 
905	 0,609675438496432 
906	 0,609302055536139 
907	 0,608937265232745 
908	 0,608864055278479 
909	 0,608611819505266 
910	 0,608190144429082 
911	 0,608007258355759 
912	 0,6077723316484 
913	 0,607513964644052 
914	 0,608202698539578 
915	 0,609043795003908 
916	 0,609084701168216 
917	 0,608822186075632 
918	 0,608688713826362 
919	 0,609620125425227 
920	 0,609782310577176 
921	 0,608959385878028 
922	 0,609427427702521 
923	 0,610179522176318 
924	 0,610332935736661 
925	 0,610692014900336 
926	 0,611152113762833 
927	 0,611330155829032 
928	 0,611517911040352 
929	 0,611604387448799 
930	 0,610763411587182 
931	 0,610568085418574 
932	 0,611709731472112 
933	 0,612008228387846 
934	 0,611956285715799 
935	 0,612485942447616 
936	 0,612880539585595 
937	 0,613052572540948 
938	 0,613255126597411 
939	 0,613091094424916 
940	 0,612610661872231 
941	 0,612816321563199 
942	 0,613189401516938 
943	 0,613169634831028 
944	 0,612518276727138 
945	 0,61144896648243 
946	 0,610423320912272 
947	 0,60971475926558 
948	 0,609347890793325 
949	 0,609116055320604 
950	 0,60814488451052 
951	 0,606270119001156 
952	 0,60585633865716 
953	 0,60607881412681 
954	 0,605648169395895 
955	 0,605037857387244 
956	 0,604531869879648 
957	 0,604750463675266 
958	 0,604265372602433 
959	 0,602837700724626 
960	 0,601582802376191 
961	 0,601852160940976 
962	 0,604120039878347 
963	 0,603834768921959 
964	 0,60191949542782 
965	 0,600804080828465 
966	 0,600708065759113 
967	 0,601275508479654 
968	 0,601049142741197 
969	 0,600436719242873 
970	 0,599718227304672 
971	 0,599528306783214 
972	 0,59936700682059 
973	 0,598834138961607 
974	 0,59918349884243 
975	 0,599935671901612 
976	 0,599819660578551 
977	 0,601452382431415 
978	 0,604065613679317 
979	 0,602478289378642 
980	 0,60136042824555 
981	 0,602700954873299 
982	 0,603430147111949 
983	 0,603466590401572 
984	 0,603094901657013 
985	 0,603907364765617 
986	 0,60506951044122 
987	 0,604411404004798 
988	 0,603129766297711 
989	 0,602081170293558 
990	 0,602935682058767 
991	 0,603928664736395 
992	 0,604268070834409 
993	 0,605326018092104 
994	 0,60664397162392 
995	 0,607619957810771 
996	 0,60801814261043 
997	 0,608025934083541 
998	 0,608082206523989 
999	 0,608830383478627 
1000	 0,609965157893916 
1001	 0,609522689809213 
1002	 0,609776165363388 
1003	 0,611430103404817 
1004	 0,611409835965053 
1005	 0,610998163447736 
1006	 0,611749143453381 
1007	 0,614334102891718 
1008	 0,616327739740052 
1009	 0,61340421123369 
1010	 0,610742520025121 
1011	 0,609739162884565 
1012	 0,609654509880966 
1013	 0,610699548201492 
1014	 0,612516290357986 
1015	 0,613620615043419 
1016	 0,61287978423729 
1017	 0,610350183855521 
1018	 0,61470561331931 
1019	 0,619865190126197 
1020	 0,615263679005251 
1021	 0,61150017357939 
1022	 0,610920593781169 
1023	 0,612426078051733 
1024	 0,613788135715848 
1025	 0,614103258183997 
1026	 0,613557039924404 
1027	 0,615128674492102 
1028	 0,619973249007297 
1029	 0,621917112424614 
1030	 0,621611380402041 
1031	 0,6206449316836 
1032	 0,617159337753702 
1033	 0,613739396953069 
1034	 0,615759009046574 
1035	 0,620684864212603 
1036	 0,625306671389323 
1037	 0,620980152172812 
1038	 0,61998660748377 
1039	 0,625477137565996 
1040	 0,622679800073906 
1041	 0,616078167730671 
1042	 0,611198206816041 
1043	 0,614252128032243 
1044	 0,619549909126457 
1045	 0,618246082169216 
1046	 0,618415398156439 
1047	 0,621587461328653 
1048	 0,627181599302085 
1049	 0,629595004581244 
1050	 0,627890659923697 
1051	 0,625048284673301 
1052	 0,625380241862936 
1053	 0,629975992446976 
1054	 0,631592285343105 
1055	 0,631338168681843 
1056	 0,631092667707346 
1057	 0,635158064658083 
1058	 0,636728290629483 
1059	 0,626131266597193 
1060	 0,626632531642404 
1061	 0,633738344567807 
1062	 0,62572421406835 
1063	 0,621596868628499 
1064	 0,626009125479872 
1065	 0,635395280323232 
1066	 0,63520366808403 
1067	 0,623019956449766 
1068	 0,622666490232455 
1069	 0,630575618527562 
1070	 0,63983330538261 
1071	 0,635544758451079 
1072	 0,627434494058719 
1073	 0,628577685014784 
1074	 0,636466939741617 
1075	 0,640438102819876 
