Wavelength	SCORFF200415.asd
325	 0,148560876893512 
326	 0,193802734573549 
327	 0,168640547076383 
328	 8,32689209582296E-02 
329	 3,35661435994454E-02 
330	 6,57437497398021E-02 
331	 0,200487516805508 
332	 0,17598729471686 
333	 5,98991783498772E-02 
334	 2,51985012458626E-02 
335	 9,50001555230685E-02 
336	 0,19811995836586 
337	 0,169986741981127 
338	 7,31544432848837E-02 
339	 1,35809136539806E-03 
340	 4,48316060334655E-02 
341	 0,108675923618393 
342	-1,29529045050058E-02 
343	-1,49779686244033E-02 
344	 0,123160587458532 
345	 0,101185501453488 
346	 3,37241591758071E-02 
347	 3,90935251646391E-02 
348	 7,50133504586362E-02 
349	 0,111724106219106 
350	 0,104998510963035 
351	 9,90553988491481E-02 
352	 0,105379006740955 
353	 7,53585480146081E-02 
354	 4,29775063770581E-02 
355	 0,05116847889996 
356	 7,51003302102679E-02 
357	 0,094714838271275 
358	 8,99758034657696E-02 
359	 6,85863976673479E-02 
360	 3,48933655463035E-02 
361	 3,81288357189057E-03 
362	-1,02623572853032E-03 
363	 4,65086011770032E-02 
364	 6,86874427641005E-02 
365	 5,94145539002759E-02 
366	 5,71280783930573E-02 
367	 5,31593013809072E-02 
368	 0,042868841464706 
369	 3,03351534933854E-02 
370	 2,13674308288141E-02 
371	 2,74219027535279E-02 
372	 2,61088375426428E-02 
373	 0,018309550681515 
374	 3,75111961537752E-02 
375	 5,06014788654674E-02 
376	 3,65467078307043E-02 
377	 3,52932110998577E-02 
378	 4,37272780410466E-02 
379	 4,22167049076541E-02 
380	 3,69404971289476E-02 
381	 3,03177748385226E-02 
382	 2,72543044253468E-02 
383	 2,39551016300989E-02 
384	 0,016901579614392 
385	 0,018643563403493 
386	 2,76414012354373E-02 
387	 3,52224003078225E-02 
388	 3,87811378906154E-02 
389	 3,73136933451935E-02 
390	 3,52186964879227E-02 
391	 3,19003536922178E-02 
392	 2,66255991732608E-02 
393	 1,49593477842661E-02 
394	 2,87408646442273E-03 
395	 1,34387015517562E-02 
396	 0,016859970870767 
397	 2,28204273801277E-03 
398	 3,25456394944925E-03 
399	 1,83140401154193E-02 
400	 4,15653548687599E-02 
401	 4,33099181857646E-02 
402	 2,29653289821932E-02 
403	 7,53131954348143E-03 
404	 8,5135085325295E-03 
405	 2,91424628467192E-02 
406	 2,75075245126356E-02 
407	 1,45831592626241E-02 
408	 2,53758853757634E-02 
409	 3,04015354055209E-02 
410	 2,48300071931225E-02 
411	 2,82904841247981E-02 
412	 2,98459461068835E-02 
413	 1,96029026546113E-02 
414	 1,97209992906173E-02 
415	 2,65038802319526E-02 
416	 1,96404703546275E-02 
417	 1,73901767280144E-02 
418	 2,46462788182766E-02 
419	 2,31858083741676E-02 
420	 1,88977365297462E-02 
421	 2,11950319747869E-02 
422	 2,20719609744027E-02 
423	 2,12357207805154E-02 
424	 2,41858677529719E-02 
425	 2,48728968842781E-02 
426	 2,04283688196277E-02 
427	 1,88312948600658E-02 
428	 2,00902311666859E-02 
429	 2,23063518409404E-02 
430	 2,29815308676747E-02 
431	 2,21242406068954E-02 
432	 0,024291473051378 
433	 0,02509665166567 
434	 2,10366289088452E-02 
435	 2,14631498650393E-02 
436	 2,46794061493171E-02 
437	 2,21342101955888E-02 
438	 0,019160756575787 
439	 0,018262097337267 
440	 2,10998366705127E-02 
441	 2,31111041539411E-02 
442	 1,85349410967124E-02 
443	 1,69283060278321E-02 
444	 1,96098916815373E-02 
445	 2,31821954214494E-02 
446	 2,44617753903046E-02 
447	 2,17586891260081E-02 
448	 1,93882264710125E-02 
449	 1,81025455740268E-02 
450	 1,78605785597926E-02 
451	 1,86612129306796E-02 
452	 0,020200927298521 
453	 0,021809898675888 
454	 2,18189415891193E-02 
455	 1,89446225422108E-02 
456	 1,66979838140216E-02 
457	 1,60692752203419E-02 
458	 1,73795878298665E-02 
459	 0,0194743788934 
460	 2,14296056731542E-02 
461	 2,16478653155603E-02 
462	 2,10725572843173E-02 
463	 2,11983643777745E-02 
464	 1,97382045700679E-02 
465	 1,71192658915566E-02 
466	 1,61344488112447E-02 
467	 1,77445965215437E-02 
468	 2,17694364231716E-02 
469	 2,11179398377329E-02 
470	 1,77735149948795E-02 
471	 1,76207308009857E-02 
472	 1,80049332372441E-02 
473	 1,85673780885554E-02 
474	 2,11492649022922E-02 
475	 0,023870774934927 
476	 0,024743484561912 
477	 2,22738795315197E-02 
478	 1,82172342139168E-02 
479	 1,80113843912041E-02 
480	 1,81206220530136E-02 
481	 1,70468482631163E-02 
482	 1,63408990694736E-02 
483	 1,61975324395099E-02 
484	 1,66813812298269E-02 
485	 1,67972095636759E-02 
486	 0,016794588741424 
487	 1,89026856727963E-02 
488	 2,06204398890434E-02 
489	 2,00803978141715E-02 
490	 1,91699435609567E-02 
491	 0,018259751548005 
492	 1,73721940181669E-02 
493	 1,65871723516575E-02 
494	 1,60347093104076E-02 
495	 1,57822994172151E-02 
496	 1,66955221078928E-02 
497	 1,96521355761631E-02 
498	 2,06492683502106E-02 
499	 1,93310674821212E-02 
500	 1,75417100296334E-02 
501	 1,65436103006345E-02 
502	 1,69299426579586E-02 
503	 1,65492330436306E-02 
504	 1,60658270760231E-02 
505	 0,017180504957709 
506	 1,80104765063648E-02 
507	 1,80198422156676E-02 
508	 1,75944614213816E-02 
509	 1,71288113996159E-02 
510	 1,69972641244737E-02 
511	 1,76654940801715E-02 
512	 1,86765052372413E-02 
513	 1,87882861678086E-02 
514	 1,82965549031047E-02 
515	 1,74437191391092E-02 
516	 0,016779811813413 
517	 1,68581893876983E-02 
518	 1,83639425746667E-02 
519	 1,86773440818698E-02 
520	 1,77599698851672E-02 
521	 1,83662600003988E-02 
522	 1,84631494095479E-02 
523	 1,68185494924257E-02 
524	 1,70037650395088E-02 
525	 1,83547354554666E-02 
526	 1,81390303355157E-02 
527	 1,77864491019471E-02 
528	 1,77356689649286E-02 
529	 1,78150891089077E-02 
530	 1,79145253385909E-02 
531	 1,79159628559491E-02 
532	 1,73956426381132E-02 
533	 1,68290078082527E-02 
534	 1,80359052301686E-02 
535	 1,89996928867579E-02 
536	 0,0186111282371 
537	 1,83091166727562E-02 
538	 1,82703254743186E-02 
539	 1,84695178915058E-02 
540	 1,84067085639369E-02 
541	 0,018026782035629 
542	 1,78990152726096E-02 
543	 1,78953636578904E-02 
544	 1,78598822662331E-02 
545	 1,77271089699784E-02 
546	 1,76695025787008E-02 
547	 1,82547637364849E-02 
548	 1,86765070794053E-02 
549	 1,85727652737467E-02 
550	 1,85082222682412E-02 
551	 1,84648291276689E-02 
552	 1,83017041309692E-02 
553	 1,83108412272485E-02 
554	 1,84132005255455E-02 
555	 1,79157581134614E-02 
556	 1,75060666765935E-02 
557	 1,77423195118998E-02 
558	 1,80548968746745E-02 
559	 1,81992837273959E-02 
560	 0,017831453980275 
561	 1,75286201937806E-02 
562	 1,75071471609696E-02 
563	 1,74518816638962E-02 
564	 0,017324922704138 
565	 1,71078001582177E-02 
566	 1,73853521271465E-02 
567	 1,80399675823238E-02 
568	 1,81292059356928E-02 
569	 1,81227545181988E-02 
570	 1,83162498369174E-02 
571	 1,81763212709749E-02 
572	 1,79404111889057E-02 
573	 1,82911617648177E-02 
574	 0,018579926246247 
575	 1,86554921167697E-02 
576	 1,90818075547152E-02 
577	 1,92948053386656E-02 
578	 1,86594771209874E-02 
579	 1,84628837689384E-02 
580	 1,88916355971576E-02 
581	 0,019534780457653 
582	 2,00352985456938E-02 
583	 0,020156673411019 
584	 2,00022256172168E-02 
585	 0,01980974287107 
586	 1,99697582286799E-02 
587	 1,98765200813763E-02 
588	 1,96033240633875E-02 
589	 2,03278348857801E-02 
590	 2,10771472345756E-02 
591	 2,09372613777996E-02 
592	 2,09665494232555E-02 
593	 2,11840128674922E-02 
594	 2,10722509356696E-02 
595	 2,08663572924617E-02 
596	 2,06740223310774E-02 
597	 2,03858620368526E-02 
598	 2,03242855708204E-02 
599	 2,09919326448123E-02 
600	 2,11697454405007E-02 
601	 2,07011032776096E-02 
602	 2,04394956315745E-02 
603	 2,03409496782956E-02 
604	 2,03871700271495E-02 
605	 2,10066232448637E-02 
606	 2,15940849513874E-02 
607	 2,04653153560063E-02 
608	 1,96803843598899E-02 
609	 1,98831409622294E-02 
610	 1,97627995016414E-02 
611	 1,94531185551972E-02 
612	 1,92521519204441E-02 
613	 1,88968658345647E-02 
614	 1,86084209911417E-02 
615	 1,93201380382002E-02 
616	 1,99866646891709E-02 
617	 1,98970034017629E-02 
618	 1,91135049809561E-02 
619	 1,84624080403773E-02 
620	 1,96186960654652E-02 
621	 0,020077946998283 
622	 1,93270537656321E-02 
623	 1,92978478632612E-02 
624	 1,94285503515406E-02 
625	 1,90565862228125E-02 
626	 1,89933832506435E-02 
627	 1,92687055494085E-02 
628	 1,94936054063408E-02 
629	 1,95895412439261E-02 
630	 1,95471107677591E-02 
631	 1,97916505142201E-02 
632	 1,99550997020673E-02 
633	 1,93373723213417E-02 
634	 1,91265848279483E-02 
635	 1,96010579325511E-02 
636	 2,03931997971538E-02 
637	 2,07775825197007E-02 
638	 2,02190959350929E-02 
639	 1,98646292718142E-02 
640	 2,00835606045535E-02 
641	 2,12966579791628E-02 
642	 2,21595107403679E-02 
643	 2,21240080378856E-02 
644	 2,17976071846283E-02 
645	 2,15969472925535E-02 
646	 0,021977565456349 
647	 2,17111114347232E-02 
648	 2,09197581186597E-02 
649	 2,10678101536689E-02 
650	 0,0217028005221 
651	 2,23842379432881E-02 
652	 2,21013180548359E-02 
653	 2,12938639051658E-02 
654	 2,11838372316466E-02 
655	 2,10959293248662E-02 
656	 2,07987225366921E-02 
657	 2,02143989955811E-02 
658	 1,95769271853606E-02 
659	 1,91351887614662E-02 
660	 0,018769719196781 
661	 1,85363351331174E-02 
662	 1,87134906349056E-02 
663	 0,018623040823735 
664	 1,80692176729387E-02 
665	 1,83634780126089E-02 
666	 1,89641962260673E-02 
667	 1,88035380396495E-02 
668	 1,86658201184844E-02 
669	 1,86532309771305E-02 
670	 1,83125145562613E-02 
671	 0,017860176884082 
672	 1,75218344957559E-02 
673	 0,017681576736189 
674	 1,82101437368499E-02 
675	 1,87702359378351E-02 
676	 1,87036627110049E-02 
677	 1,79323429085039E-02 
678	 1,76150022275946E-02 
679	 1,78173714339134E-02 
680	 1,84724785706534E-02 
681	 1,85820859107771E-02 
682	 1,81828870595665E-02 
683	 1,82769846069018E-02 
684	 1,83522693781584E-02 
685	 1,81768028137762E-02 
686	 1,83395328641471E-02 
687	 1,88312212267948E-02 
688	 1,95231004456135E-02 
689	 1,99798694091527E-02 
690	 0,020201316428133 
691	 2,08758529885163E-02 
692	 2,16923555809695E-02 
693	 2,23915393716252E-02 
694	 2,37400762297531E-02 
695	 0,025582878248254 
696	 2,70551924523072E-02 
697	 2,91674379882873E-02 
698	 3,22078610179236E-02 
699	 3,51808967764892E-02 
700	 3,82320797135963E-02 
701	 4,16724880966118E-02 
702	 4,56516065010961E-02 
703	 5,00131580135886E-02 
704	 5,41110788589537E-02 
705	 0,058460023066786 
706	 6,33038126241115E-02 
707	 0,067821516194329 
708	 7,21533110344589E-02 
709	 7,68102954838361E-02 
710	 8,10899286692512E-02 
711	 8,48968025712129E-02 
712	 8,87688513154192E-02 
713	 9,28184348598328E-02 
714	 9,70730799630737E-02 
715	 0,100672395327881 
716	 0,103800777335465 
717	 0,107487077771844 
718	 0,110671127218453 
719	 0,11307780433171 
720	 0,115863036622142 
721	 0,118761072600238 
722	 0,121303947827069 
723	 0,123463708028142 
724	 0,125262304413795 
725	 0,126811246326009 
726	 0,128309160534577 
727	 0,129875405360854 
728	 0,131330929221471 
729	 0,132630116411441 
730	 0,13371005315675 
731	 0,135074557298954 
732	 0,136647090474272 
733	 0,137408523966127 
734	 0,13797583206984 
735	 0,138901431771981 
736	 0,139705487790846 
737	 0,140419725005323 
738	 0,141390719288062 
739	 0,141996540331258 
740	 0,142116264585646 
741	 0,142477677443463 
742	 0,143095658267872 
743	 0,143903431801892 
744	 0,144621105508931 
745	 0,14510889968965 
746	 0,145220061867449 
747	 0,145211426125847 
748	 0,145300796725546 
749	 0,145861903938969 
750	 0,14654866654735 
751	 0,146758591916728 
752	 0,147205899329061 
753	 0,147913465504208 
754	 0,148222148971394 
755	 0,148444479632156 
756	 0,148792641560302 
757	 0,148936040499152 
758	 0,14899439590483 
759	 0,149298861753845 
760	 0,149617446344936 
761	 0,149877478051223 
762	 0,150083508342121 
763	 0,150392008496764 
764	 0,15092694173417 
765	 0,151287447619332 
766	 0,151482127546154 
767	 0,151726214550802 
768	 0,152116782483315 
769	 0,152592375637299 
770	 0,152502874651845 
771	 0,152379671491929 
772	 0,152892067043696 
773	 0,153243559939261 
774	 0,153419270800572 
775	 0,154041518590647 
776	 0,154228960586585 
777	 0,15369034405616 
778	 0,153839822229861 
779	 0,154277121439541 
780	 0,154173653259509 
781	 0,15430333466263 
782	 0,154673118151728 
783	 0,154577607173655 
784	 0,154490684376628 
785	 0,154733079612344 
786	 0,155180875602197 
787	 0,155658431061286 
788	 0,155908154120174 
789	 0,155918179043071 
790	 0,155852880270128 
791	 0,156448937207816 
792	 0,156838551193842 
793	 0,156403958421522 
794	 0,15646679281029 
795	 0,156908252059266 
796	 0,156980271788159 
797	 0,157093531544824 
798	 0,15737066786542 
799	 0,157776618365759 
800	 0,158172856058934 
801	 0,158419858538074 
802	 0,158413283282904 
803	 0,158269713442877 
804	 0,158273812302245 
805	 0,15856232266242 
806	 0,159070287515487 
807	 0,159069124976095 
808	 0,159056070957005 
809	 0,159588947761414 
810	 0,159919239858717 
811	 0,160024928306617 
812	 0,16031698572056 
813	 0,160466475877088 
814	 0,160419483102646 
815	 0,160676202689123 
816	 0,161058578775487 
817	 0,161300651853422 
818	 0,161354401792695 
819	 0,161312052270171 
820	 0,161466992333854 
821	 0,161748928032732 
822	 0,162113483788168 
823	 0,162510553632591 
824	 0,162755371813574 
825	 0,162637878056799 
826	 0,162676673077637 
827	 0,162990786313791 
828	 0,163564931727002 
829	 0,163815594221097 
830	 0,16352804182661 
831	 0,163580358809783 
832	 0,163773738249495 
833	 0,163703142837241 
834	 0,164208978303577 
835	 0,165136846095972 
836	 0,16537535368753 
837	 0,165320496088419 
838	 0,165228228045949 
839	 0,165304938770496 
840	 0,165531534214344 
841	 0,165832703398793 
842	 0,165706254077515 
843	 0,165352217198605 
844	 0,165864604164032 
845	 0,166472607392438 
846	 0,166700193664382 
847	 0,166483789280992 
848	 0,166167417013239 
849	 0,166238678097377 
850	 0,166497741399108 
851	 0,166783572777916 
852	 0,166776534905347 
853	 0,166585760990807 
854	 0,166302830071218 
855	 0,166021806188963 
856	 0,166056286772716 
857	 0,166785594710057 
858	 0,167149054727665 
859	 0,167026804407936 
860	 0,167022199830509 
861	 0,166841031791882 
862	 0,166462711276995 
863	 0,166610761000709 
864	 0,167165173332779 
865	 0,167852750129173 
866	 0,168363853856726 
867	 0,168658220352167 
868	 0,168993823746063 
869	 0,168975666996014 
870	 0,168540013475259 
871	 0,168426898189529 
872	 0,168655402541912 
873	 0,169136913934651 
874	 0,16953530063595 
875	 0,169788547076947 
876	 0,169931134418136 
877	 0,170471772396966 
878	 0,171424757245954 
879	 0,171536285422868 
880	 0,17141419043025 
881	 0,171800480189426 
882	 0,172120701534955 
883	 0,172268905250299 
884	 0,172200112157914 
885	 0,172379360717492 
886	 0,172975680434315 
887	 0,173918922688753 
888	 0,174374177828029 
889	 0,173672981199341 
890	 0,173372242330519 
891	 0,173541608838891 
892	 0,173620694831425 
893	 0,173987351106561 
894	 0,174546776995911 
895	 0,174466949726896 
896	 0,174288378078836 
897	 0,174402749787543 
898	 0,174050847647237 
899	 0,17357123383082 
900	 0,17376277105515 
901	 0,173568358971324 
902	 0,173063444332101 
903	 0,173704342169154 
904	 0,174323051258924 
905	 0,17420947306284 
906	 0,173906042939395 
907	 0,173925238983545 
908	 0,174871202727364 
909	 0,174671023843834 
910	 0,173675151968756 
911	 0,174764798325564 
912	 0,175410568157181 
913	 0,174627230287416 
914	 0,174104489720724 
915	 0,174245151727438 
916	 0,175253141627261 
917	 0,175793307095182 
918	 0,175798049719041 
919	 0,175877963830259 
920	 0,176066461925187 
921	 0,176175674911957 
922	 0,175167145625389 
923	 0,17401514575666 
924	 0,173704513535993 
925	 0,175125856643682 
926	 0,176958608568553 
927	 0,176669940784275 
928	 0,175969027708894 
929	 0,175349110467864 
930	 0,174588282967587 
931	 0,174693819585815 
932	 0,175912219482402 
933	 0,175736896543541 
934	 0,174639313851663 
935	 0,17365417743664 
936	 0,174396658289146 
937	 0,175852809744423 
938	 0,173911665157522 
939	 0,173021628493507 
940	 0,174300945910725 
941	 0,174059754326987 
942	 0,173298825775831 
943	 0,173084219844495 
944	 0,17319276847655 
945	 0,173025660260292 
946	 0,171494303001743 
947	 0,170841687590048 
948	 0,17118473568181 
949	 0,170364771470003 
950	 0,169407149259727 
951	 0,168963105570358 
952	 0,169246780578015 
953	 0,169133025780002 
954	 0,16734780484517 
955	 0,166054312705272 
956	 0,16570451462972 
957	 0,166344932637342 
958	 0,165499985349484 
959	 0,163057335401313 
960	 0,162730679323506 
961	 0,163831877841478 
962	 0,165392938991044 
963	 0,165051163409941 
964	 0,163616275038271 
965	 0,162884744844464 
966	 0,162439848123583 
967	 0,162102075279152 
968	 0,161397746888713 
969	 0,161022395774137 
970	 0,161283587166919 
971	 0,162160249680319 
972	 0,162569728231365 
973	 0,161669722355021 
974	 0,161194051626308 
975	 0,161302258740513 
976	 0,161693977225222 
977	 0,162171517196771 
978	 0,162397690227628 
979	 0,16141263604806 
980	 0,161266550845237 
981	 0,16275368951816 
982	 0,163959690345511 
983	 0,16472843775398 
984	 0,165046959162916 
985	 0,164360623930513 
986	 0,163626795810881 
987	 0,164842053883975 
988	 0,165536043930429 
989	 0,165191072348454 
990	 0,164791945025609 
991	 0,163970548183577 
992	 0,163011373828504 
993	 0,16427349396269 
994	 0,167025070274588 
995	 0,169990142369695 
996	 0,16970584192269 
997	 0,167785561687983 
998	 0,168668640588385 
999	 0,16995297480756 
1000	 0,171046673670952 
1001	 0,172253761999627 
1002	 0,172758878783741 
1003	 0,172375905449862 
1004	 0,172325042845711 
1005	 0,173440992479675 
1006	 0,176022942222389 
1007	 0,175458122828694 
1008	 0,173629320855961 
1009	 0,175304586436692 
1010	 0,175382111181093 
1011	 0,173082811744355 
1012	 0,169724137832614 
1013	 0,170505289457087 
1014	 0,176166525096157 
1015	 0,17756055722162 
1016	 0,176700622548809 
1017	 0,176028821697082 
1018	 0,177505029425539 
1019	 0,179483833583491 
1020	 0,179089945763399 
1021	 0,180865284129085 
1022	 0,183959317690398 
1023	 0,183044287710961 
1024	 0,182958479179816 
1025	 0,184641770069261 
1026	 0,18456795724267 
1027	 0,183726784560674 
1028	 0,182925433406745 
1029	 0,182251815725791 
1030	 0,182937240984849 
1031	 0,18593505696614 
1032	 0,18516896169406 
1033	 0,183190333433798 
1034	 0,187544871975521 
1035	 0,190214646663289 
1036	 0,189438748196475 
1037	 0,186969983257059 
1038	 0,188596344753488 
1039	 0,194244740035039 
1040	 0,188931944970086 
1041	 0,180977052970937 
1042	 0,178830490599878 
1043	 0,184525886093245 
1044	 0,192672093241529 
1045	 0,195447571550209 
1046	 0,200077803648313 
1047	 0,20559254472042 
1048	 0,206370469101478 
1049	 0,200702886926045 
1050	 0,191180704387341 
1051	 0,190511433372887 
1052	 0,194618507201758 
1053	 0,199768011526688 
1054	 0,197420947431869 
1055	 0,198733629578593 
1056	 0,211241113701164 
1057	 0,213836756976284 
1058	 0,205228371156321 
1059	 0,189206200967691 
1060	 0,185422865903372 
1061	 0,193129796231259 
1062	 0,200025664737059 
1063	 0,201622298022093 
1064	 0,198052897798675 
1065	 0,197892880049899 
1066	 0,198194862905675 
1067	 0,195536723658958 
1068	 0,176295999192983 
1069	 0,172340261323134 
1070	 0,202056240188609 
1071	 0,205331905452137 
1072	 0,197953960520734 
1073	 0,204073986125128 
1074	 0,197600198980927 
1075	 0,187106507090415 
