Wavelength	SCORFF200151.asd
325	 0,660246706818255 
326	 0,632312951102979 
327	 0,607529977293732 
328	 0,574617843501995 
329	 0,664061264950177 
330	 0,679343101265358 
331	 0,48916028999711 
332	 0,445470827755727 
333	 0,526334075948941 
334	 0,579983915355722 
335	 0,533057539091834 
336	 0,424250802324573 
337	 0,422644844784622 
338	 0,42696911461067 
339	 0,34734775081009 
340	 0,387377205328329 
341	 0,47356533705743 
342	 0,428853806301107 
343	 0,408039873914038 
344	 0,434431183411974 
345	 0,376654478561047 
346	 0,333426007582236 
347	 0,406240580908738 
348	 0,446471790948045 
349	 0,450815955856995 
350	 0,492512005360533 
351	 0,488398059347851 
352	 0,424030555304564 
353	 0,401685659854119 
354	 0,407583743610505 
355	 0,423579676855416 
356	 0,45239487549976 
357	 0,469289186387703 
358	 0,422542095405845 
359	 0,402308587790223 
360	 0,434872031912174 
361	 0,402567802426223 
362	 0,36060783238635 
363	 0,40811170212766 
364	 0,430881396035062 
365	 0,418837665519642 
366	 0,422443492948393 
367	 0,425473644874478 
368	 0,418617022885905 
369	 0,40873575140071 
370	 0,400350861781644 
371	 0,401498580279107 
372	 0,39876865492253 
373	 0,394639432373346 
374	 0,415577570123528 
375	 0,438193474713626 
376	 0,445297789839967 
377	 0,424537096289198 
378	 0,398737447324307 
379	 0,415937369418028 
380	 0,429374710828874 
381	 0,427991879609001 
382	 0,440729125422056 
383	 0,447009737567224 
384	 0,429454407665361 
385	 0,41628170856862 
386	 0,417348509455494 
387	 0,44692998029427 
388	 0,45329931173547 
389	 0,424183793260379 
390	 0,413932073005019 
391	 0,421632567157727 
392	 0,4407806724978 
393	 0,434639195663842 
394	 0,410099425527356 
395	 0,414393821442098 
396	 0,42006966094188 
397	 0,414450421850298 
398	 0,407658088710087 
399	 0,40989411140494 
400	 0,435234567822075 
401	 0,440429488652702 
402	 0,422345035897971 
403	 0,413391674434956 
404	 0,41576560177508 
405	 0,427727654085827 
406	 0,42165059972811 
407	 0,409911577367952 
408	 0,426553934666327 
409	 0,43639168672381 
410	 0,432052150526371 
411	 0,431968607950881 
412	 0,429774777482984 
413	 0,41965568729467 
414	 0,420048188870238 
415	 0,427771400913533 
416	 0,426861344668177 
417	 0,424749071603018 
418	 0,424118689608245 
419	 0,422072932478266 
420	 0,421444037159801 
421	 0,426020279675331 
422	 0,428595179430326 
423	 0,42725287807753 
424	 0,420942010894622 
425	 0,419224400855431 
426	 0,426368765754782 
427	 0,426436612072197 
428	 0,422307212266485 
429	 0,423184467374584 
430	 0,422894787197664 
431	 0,420872370396605 
432	 0,42190273139873 
433	 0,423904646294715 
434	 0,424836416766842 
435	 0,424950196573172 
436	 0,424345964809568 
437	 0,422811456992494 
438	 0,423206407513302 
439	 0,426091453453706 
440	 0,42726791465183 
441	 0,426278508756689 
442	 0,423127324089726 
443	 0,421769383854692 
444	 0,42278574656614 
445	 0,4243859661197 
446	 0,42563252201361 
447	 0,426017597166313 
448	 0,426911189089935 
449	 0,428260151885886 
450	 0,429496760165501 
451	 0,431996505420708 
452	 0,435151201046609 
453	 0,434690434122833 
454	 0,43271908946614 
455	 0,431480849550377 
456	 0,432221514760549 
457	 0,433959402709261 
458	 0,433343143094623 
459	 0,432564777520165 
460	 0,43255785398717 
461	 0,433038023150325 
462	 0,43385889904545 
463	 0,434873374826328 
464	 0,434341806582562 
465	 0,43258898191348 
466	 0,431894438009866 
467	 0,433397507322881 
468	 0,437193758210703 
469	 0,437331310304361 
470	 0,435417090021007 
471	 0,436498378815797 
472	 0,436376969105202 
473	 0,434667414073017 
474	 0,435781794790464 
475	 0,437315359261359 
476	 0,436789958487878 
477	 0,437343092499603 
478	 0,438136032147356 
479	 0,434607385486587 
480	 0,433666773561442 
481	 0,437593062734042 
482	 0,437660773787065 
483	 0,436279329252513 
484	 0,438371503512452 
485	 0,440262799808366 
486	 0,440725362887862 
487	 0,438841682649017 
488	 0,437941300043427 
489	 0,44016112631344 
490	 0,439609344203413 
491	 0,437314633025607 
492	 0,437844177111206 
493	 0,43832139521006 
494	 0,437776850701388 
495	 0,436052656753207 
496	 0,435571098459316 
497	 0,438926529151689 
498	 0,440209971452502 
499	 0,438822193517022 
500	 0,4371630687962 
501	 0,436816292345907 
502	 0,438470982054638 
503	 0,439235972972135 
504	 0,43944418031389 
505	 0,440320619634428 
506	 0,442122023779161 
507	 0,444255159309932 
508	 0,443920185921284 
509	 0,442925786195234 
510	 0,442971952949494 
511	 0,44253968218083 
512	 0,441901526299469 
513	 0,442417733956332 
514	 0,442987010360201 
515	 0,443042807510913 
516	 0,442184826822282 
517	 0,441647295337013 
518	 0,443150383193139 
519	 0,444688022528751 
520	 0,445795676332436 
521	 0,447129300565205 
522	 0,447622473827581 
523	 0,44668802717848 
524	 0,446634408010058 
525	 0,447242703944006 
526	 0,447153753546801 
527	 0,446841842497388 
528	 0,446601972823005 
529	 0,447308558385128 
530	 0,447852174483782 
531	 0,446935466087097 
532	 0,445993962910418 
533	 0,445446448704516 
534	 0,445360625745457 
535	 0,445655231140319 
536	 0,446113996280043 
537	 0,445436284848755 
538	 0,444465879730709 
539	 0,445018324510114 
540	 0,445952732836404 
541	 0,446739800102959 
542	 0,446677322981865 
543	 0,446748448393528 
544	 0,447867653751928 
545	 0,447979101338154 
546	 0,447413418455471 
547	 0,448366653258182 
548	 0,448951772101426 
549	 0,448476427730393 
550	 0,448900540714845 
551	 0,449788627928595 
552	 0,450124162808868 
553	 0,450714331983207 
554	 0,451323519402766 
555	 0,450142693043209 
556	 0,449129560949108 
557	 0,449809167346213 
558	 0,449595923281972 
559	 0,448648946674444 
560	 0,448534740926178 
561	 0,448428949611131 
562	 0,448117336028746 
563	 0,448147375638481 
564	 0,448480712538433 
565	 0,449002410837612 
566	 0,449459444804352 
567	 0,449986407325257 
568	 0,451486938044182 
569	 0,452476016041506 
570	 0,452062158590058 
571	 0,452400020140219 
572	 0,45340711801127 
573	 0,454166646340696 
574	 0,454745989957661 
575	 0,455155353664916 
576	 0,455599393302553 
577	 0,455942631215685 
578	 0,456044316833786 
579	 0,457168214928794 
580	 0,459024959481214 
581	 0,459850551452091 
582	 0,460469869769114 
583	 0,461206490478089 
584	 0,460646691050073 
585	 0,460187861431768 
586	 0,462627248931899 
587	 0,464096245980069 
588	 0,463992552770663 
589	 0,465456526184758 
590	 0,467062928775247 
591	 0,467413845562779 
592	 0,467922546197392 
593	 0,468646681026299 
594	 0,468973423551736 
595	 0,469234642619049 
596	 0,469558774226429 
597	 0,469688674403347 
598	 0,469897226124195 
599	 0,470638914354682 
600	 0,470952360681677 
601	 0,47061827353145 
602	 0,469892038953528 
603	 0,469480068394415 
604	 0,469850739525274 
605	 0,469699130894946 
606	 0,469022680569033 
607	 0,46831834599673 
608	 0,46797625138376 
609	 0,46802739974937 
610	 0,467460670863459 
611	 0,466830630833647 
612	 0,466913841234845 
613	 0,466422699036451 
614	 0,465600606248099 
615	 0,46641663299612 
616	 0,466900566517128 
617	 0,46593657967989 
618	 0,465645321317292 
619	 0,465889236417762 
620	 0,465767531289595 
621	 0,465689065049896 
622	 0,465790528680467 
623	 0,466176637379911 
624	 0,466535079340159 
625	 0,466551888169855 
626	 0,466588090226523 
627	 0,466683829965718 
628	 0,4667186719676 
629	 0,466728024583507 
630	 0,46673761950274 
631	 0,466774555780028 
632	 0,466890127689251 
633	 0,467151997047531 
634	 0,467466576956645 
635	 0,467892844325271 
636	 0,468788851413309 
637	 0,469739301943069 
638	 0,470383559040377 
639	 0,470877805620105 
640	 0,471423914478503 
641	 0,472522525894531 
642	 0,473298219542384 
643	 0,473513329697164 
644	 0,474202551669799 
645	 0,474793959492982 
646	 0,474439365721568 
647	 0,474124444758585 
648	 0,473962247138306 
649	 0,473450985735949 
650	 0,472631321216621 
651	 0,471601832669908 
652	 0,470954833093124 
653	 0,470543594331601 
654	 0,469856942580541 
655	 0,469347502272917 
656	 0,469035193250275 
657	 0,468359461879852 
658	 0,467458818152144 
659	 0,466518903358439 
660	 0,465613164367391 
661	 0,464716691492723 
662	 0,46368633454287 
663	 0,462544196569854 
664	 0,461397586535014 
665	 0,460840436771948 
666	 0,460632363020807 
667	 0,460317306867427 
668	 0,459596442898698 
669	 0,458572920528145 
670	 0,458020699402436 
671	 0,457756202324082 
672	 0,457606269017259 
673	 0,457519045834112 
674	 0,457498024681768 
675	 0,457637130488548 
676	 0,457676618777921 
677	 0,457542859516318 
678	 0,457337086658286 
679	 0,457570873155466 
680	 0,458805277581759 
681	 0,459528567581329 
682	 0,459648675115344 
683	 0,460106100186357 
684	 0,460801197340399 
685	 0,461736889738925 
686	 0,463191757277513 
687	 0,465080183112467 
688	 0,467245239439063 
689	 0,469003124743119 
690	 0,470605197043349 
691	 0,474014916111811 
692	 0,478241129551394 
693	 0,482330541005692 
694	 0,48679988739964 
695	 0,491668650174231 
696	 0,496762519324766 
697	 0,502390876403967 
698	 0,508630111703098 
699	 0,515066875131641 
700	 0,521737492457805 
701	 0,528755798260212 
702	 0,53575859733991 
703	 0,542611967642905 
704	 0,549500433452516 
705	 0,555471171884022 
706	 0,560136870086388 
707	 0,565688752154119 
708	 0,5717736225999 
709	 0,577095391768989 
710	 0,582260235547838 
711	 0,587214342716136 
712	 0,590979982756989 
713	 0,59451276107893 
714	 0,598697869609951 
715	 0,60272017558324 
716	 0,606229228521339 
717	 0,608694991979453 
718	 0,611249889094655 
719	 0,614204485454859 
720	 0,616134497635532 
721	 0,617748602091625 
722	 0,620106651131599 
723	 0,621845312699098 
724	 0,622977013720916 
725	 0,62470132365512 
726	 0,62622312328823 
727	 0,627109369485905 
728	 0,62809291179165 
729	 0,629124041844116 
730	 0,629928512942352 
731	 0,630666438430037 
732	 0,631376731304139 
733	 0,63198955496648 
734	 0,632695301541314 
735	 0,63360164473588 
736	 0,633792665245825 
737	 0,633689523482421 
738	 0,634863915305723 
739	 0,635433604871898 
740	 0,634949435686482 
741	 0,635226919118175 
742	 0,63573051493163 
743	 0,635683637041224 
744	 0,635721769851385 
745	 0,635914959073405 
746	 0,636011420838585 
747	 0,636247991188017 
748	 0,636646420207061 
749	 0,63642415488722 
750	 0,636012126716206 
751	 0,636191575999748 
752	 0,636634751369858 
753	 0,637175042707465 
754	 0,637584475483159 
755	 0,637747884086487 
756	 0,637627423498375 
757	 0,637599120026518 
758	 0,637908391790423 
759	 0,638969368708261 
760	 0,639561235841391 
761	 0,639409664136028 
762	 0,639385948267962 
763	 0,639623484382863 
764	 0,640185870706542 
765	 0,640752264427032 
766	 0,641166714491846 
767	 0,641209456709236 
768	 0,641346549004992 
769	 0,641726400821778 
770	 0,642056030144783 
771	 0,64201206351529 
772	 0,641279832818778 
773	 0,641093836085841 
774	 0,641537394080132 
775	 0,642012819087158 
776	 0,641940812384449 
777	 0,641121470297486 
778	 0,640654583056573 
779	 0,640426107838612 
780	 0,640066640901228 
781	 0,639720098631434 
782	 0,639448227868605 
783	 0,639323345235625 
784	 0,639391445204434 
785	 0,63961641976834 
786	 0,639460519066926 
787	 0,639153526725059 
788	 0,639254333168171 
789	 0,639204572654073 
790	 0,638987765555384 
791	 0,639248197849752 
792	 0,639498868851741 
793	 0,639387015099127 
794	 0,639680487828948 
795	 0,64011321652213 
796	 0,639822964137881 
797	 0,639760380884308 
798	 0,640133213596482 
799	 0,640276152338967 
800	 0,640405477378728 
801	 0,640717485551589 
802	 0,640603951173615 
803	 0,640232835063046 
804	 0,640282724054217 
805	 0,640475858372729 
806	 0,640727089414642 
807	 0,641132488880648 
808	 0,641314807058838 
809	 0,640897443764179 
810	 0,640437857732546 
811	 0,640148220083675 
812	 0,640241717325986 
813	 0,640288746463787 
814	 0,640122345032674 
815	 0,640020030612271 
816	 0,63990554409008 
817	 0,639679809280075 
818	 0,640102256639211 
819	 0,640810116550896 
820	 0,640156234506677 
821	 0,639783327341929 
822	 0,640345702914216 
823	 0,64058277665956 
824	 0,640613274234659 
825	 0,640750935459156 
826	 0,641089893770572 
827	 0,64145668998821 
828	 0,641145038423434 
829	 0,641165245540387 
830	 0,641943338018747 
831	 0,642540121026792 
832	 0,642710588898378 
833	 0,642290199108774 
834	 0,64241055231061 
835	 0,643137184132473 
836	 0,643703833117032 
837	 0,643908075979387 
838	 0,643733006360318 
839	 0,644153619891231 
840	 0,644435407502182 
841	 0,643416494920966 
842	 0,642929678562949 
843	 0,643157139735377 
844	 0,643002354583779 
845	 0,642965922303014 
846	 0,64321954400805 
847	 0,643147897203274 
848	 0,642597654009315 
849	 0,641473076886217 
850	 0,641110391832101 
851	 0,641384950855825 
852	 0,640646038762326 
853	 0,639860877782358 
854	 0,639561963077231 
855	 0,639566010483525 
856	 0,639635527185686 
857	 0,639475889466486 
858	 0,639172390827794 
859	 0,638796679880037 
860	 0,638475406412736 
861	 0,638316215521074 
862	 0,63839419494768 
863	 0,638795026454703 
864	 0,639054793683647 
865	 0,638600542016459 
866	 0,638872248852713 
867	 0,639845110474324 
868	 0,640425697960131 
869	 0,640562979643734 
870	 0,640310564637827 
871	 0,640321271245674 
872	 0,640579222513398 
873	 0,640977203125247 
874	 0,641663819344637 
875	 0,642489633799368 
876	 0,642995513638226 
877	 0,643408808904762 
878	 0,643879487157715 
879	 0,644809334039097 
880	 0,645312181966088 
881	 0,644508274534377 
882	 0,644491151920961 
883	 0,645111577407643 
884	 0,644730080075065 
885	 0,644665792837452 
886	 0,645213771290201 
887	 0,645402870680909 
888	 0,64540334310086 
889	 0,645412452073454 
890	 0,645160306148944 
891	 0,644838315406323 
892	 0,644985318682038 
893	 0,644691347046423 
894	 0,644013817149832 
895	 0,644644969909252 
896	 0,64507631710159 
897	 0,64408952210452 
898	 0,642162305580598 
899	 0,640685622513796 
900	 0,641929964056603 
901	 0,642586537176666 
902	 0,641859207530849 
903	 0,640681682686629 
904	 0,640096551689973 
905	 0,640664507929628 
906	 0,641294884170838 
907	 0,641372654745397 
908	 0,640282851301987 
909	 0,63986048281589 
910	 0,640236707455043 
911	 0,640309843625865 
912	 0,639916648420735 
913	 0,639137967036509 
914	 0,639077718484557 
915	 0,639356157882594 
916	 0,639446399490415 
917	 0,639759042659615 
918	 0,640162369021981 
919	 0,640193381020336 
920	 0,640036936606895 
921	 0,639795694440723 
922	 0,639548061415028 
923	 0,639674787987528 
924	 0,640412786675197 
925	 0,640979175904128 
926	 0,641132180820478 
927	 0,64069525765859 
928	 0,640651412964319 
929	 0,64112581202276 
930	 0,641346181113703 
931	 0,641612472855945 
932	 0,642120948752636 
933	 0,643019092214468 
934	 0,643785968922913 
935	 0,643760983324411 
936	 0,643233223165847 
937	 0,642456086933133 
938	 0,641772249356906 
939	 0,6417001589739 
940	 0,642291984860653 
941	 0,642650319533832 
942	 0,642526997596739 
943	 0,641850475402847 
944	 0,641697145194268 
945	 0,641937537628067 
946	 0,642003612055515 
947	 0,641360614947428 
948	 0,640228597557319 
949	 0,640135666792619 
950	 0,639583493586181 
951	 0,63793850925259 
952	 0,636859210675905 
953	 0,63684103055466 
954	 0,638087807362 
955	 0,636867149608411 
956	 0,634223111579707 
957	 0,635097879939603 
958	 0,634962542153413 
959	 0,632977566195765 
960	 0,632491804839316 
961	 0,633381794975567 
962	 0,634986048052142 
963	 0,633368948846798 
964	 0,630874618307143 
965	 0,631845068288633 
966	 0,631958419294215 
967	 0,631007775207671 
968	 0,631938272119411 
969	 0,631701007214492 
970	 0,629669413581675 
971	 0,629833621289214 
972	 0,630447238571536 
973	 0,629904666007497 
974	 0,631445962046256 
975	 0,63301779799518 
976	 0,630070667436887 
977	 0,629706905012023 
978	 0,632166167008196 
979	 0,630941167502787 
980	 0,630134325680581 
981	 0,63160323407116 
982	 0,633800586113092 
983	 0,634895202050309 
984	 0,633444021143923 
985	 0,632999298531381 
986	 0,633785920472083 
987	 0,634891749616726 
988	 0,634890195307947 
989	 0,633901362775385 
990	 0,634255231663264 
991	 0,63400558532941 
992	 0,63269985872966 
993	 0,633909028251724 
994	 0,63610095570015 
995	 0,637307344670872 
996	 0,63704820186509 
997	 0,636397486559651 
998	 0,637692132383665 
999	 0,638169402533261 
1000	 0,637536215051204 
1001	 0,637649400851526 
1002	 0,637787123320233 
1003	 0,637810233243383 
1004	 0,639048258016517 
1005	 0,639961975578728 
1006	 0,639158317054148 
1007	 0,639284393915766 
1008	 0,64021433814577 
1009	 0,640953743629949 
1010	 0,639350405291202 
1011	 0,636261032420669 
1012	 0,636061589602759 
1013	 0,638267218985446 
1014	 0,64186230233365 
1015	 0,643075296357637 
1016	 0,642973546114493 
1017	 0,642689641379969 
1018	 0,641871092627957 
1019	 0,641932176074016 
1020	 0,644791279740634 
1021	 0,643475309361304 
1022	 0,639858179779698 
1023	 0,644128061644088 
1024	 0,646195165378036 
1025	 0,643774617877093 
1026	 0,642658755734735 
1027	 0,645099097923204 
1028	 0,650847167759983 
1029	 0,648047956261885 
1030	 0,642858265931015 
1031	 0,643659714803496 
1032	 0,643893705394594 
1033	 0,644844888563826 
1034	 0,65144896821056 
1035	 0,654229452539701 
1036	 0,651348108644171 
1037	 0,646516751626058 
1038	 0,644741171968545 
1039	 0,646876839392625 
1040	 0,642865436163312 
1041	 0,639960377477944 
1042	 0,643564351791812 
1043	 0,642092122639181 
1044	 0,640397580106532 
1045	 0,646771066175744 
1046	 0,651798688886753 
1047	 0,653432984810858 
1048	 0,651322476508372 
1049	 0,656377284984752 
1050	 0,666649968366544 
1051	 0,65890318053162 
1052	 0,652413417130555 
1053	 0,654773748232851 
1054	 0,649492910602808 
1055	 0,646193745340214 
1056	 0,652588345716331 
1057	 0,655889907108946 
1058	 0,654617807808296 
1059	 0,649695247531894 
1060	 0,653394232967275 
1061	 0,659431226193934 
1062	 0,647293184993869 
1063	 0,644493177592276 
1064	 0,654943384716394 
1065	 0,661328826631623 
1066	 0,661057789323713 
1067	 0,653969358014567 
1068	 0,646355927959686 
1069	 0,646415176226731 
1070	 0,657332291283698 
1071	 0,65632537329921 
1072	 0,650485783042045 
1073	 0,651129819934948 
1074	 0,661790405672907 
1075	 0,669127264846243 
