Wavelength	SCORFF200104.asd
325	 0,336962006291131 
326	 0,265604350919996 
327	 0,200889943987268 
328	 0,173069681448953 
329	 0,216762339160069 
330	 0,223231450030979 
331	 0,119323507608026 
332	 9,57000732279535E-02 
333	 0,129132992768974 
334	 9,17359329093681E-02 
335	 7,86702333290379E-02 
336	 0,114586043889323 
337	 0,166740941282203 
338	 0,191814953160325 
339	 0,119335329436432 
340	 5,95278713694716E-02 
341	 3,85622728277276E-02 
342	 4,02789009675314E-02 
343	 0,101303645803377 
344	 0,176208722483157 
345	 0,104789698401163 
346	 2,82582319755073E-02 
347	 8,84826128202227E-02 
348	 0,101917843785374 
349	 7,23798137716979E-02 
350	 0,083410266909876 
351	 0,10987250366693 
352	 0,129330113043882 
353	 0,107189015973105 
354	 7,79160547267527E-02 
355	 0,08253592455256 
356	 6,68446952647167E-02 
357	 0,042872148020162 
358	 7,00424984689973E-02 
359	 8,63286503574836E-02 
360	 6,53146373864582E-02 
361	 1,28951747088186E-02 
362	-1,02338507372885E-02 
363	 7,66902444545043E-02 
364	 0,10006266973052 
365	 5,75858183877584E-02 
366	 7,35637358672503E-02 
367	 0,101879198233529 
368	 0,109139940558972 
369	 6,30944754583448E-02 
370	 9,59883425010399E-03 
371	 4,79893376063531E-02 
372	 6,80064887980012E-02 
373	 0,049395535228053 
374	 4,44586077071176E-02 
375	 4,76996591513352E-02 
376	 5,40287076472282E-02 
377	 6,90027780201171E-02 
378	 7,83105208883094E-02 
379	 5,13289618938159E-02 
380	 3,64702728936492E-02 
381	 0,046879583855107 
382	 5,83572098469349E-02 
383	 5,66723559422601E-02 
384	 3,31559000224182E-02 
385	 2,35020191631508E-02 
386	 0,031922171472263 
387	 5,10375568856176E-02 
388	 6,65726530288831E-02 
389	 6,93232711363025E-02 
390	 5,44107145922924E-02 
391	 3,72422845253196E-02 
392	 3,77950846300653E-02 
393	 2,78201294276832E-02 
394	 1,33795660982445E-02 
395	 3,45373402850472E-02 
396	 4,43129825816363E-02 
397	 2,53301390003934E-02 
398	 2,94496255695364E-02 
399	 4,34585663364628E-02 
400	 4,03784668328569E-02 
401	 3,08940056556075E-02 
402	 2,16097159368673E-02 
403	 2,29514677289481E-02 
404	 3,40587647331181E-02 
405	 5,05472516519171E-02 
406	 4,28154577454794E-02 
407	 2,45807231540661E-02 
408	 3,13166351501084E-02 
409	 4,09804820397328E-02 
410	 4,57133412636151E-02 
411	 0,042389049110399 
412	 3,54058150576584E-02 
413	 2,93280137095449E-02 
414	 3,06096430366495E-02 
415	 0,035931514824279 
416	 3,45638670844839E-02 
417	 3,14898628778321E-02 
418	 2,87682134640499E-02 
419	 2,48212666561264E-02 
420	 2,39868111179855E-02 
421	 3,17981853030835E-02 
422	 3,44708541204223E-02 
423	 3,21559193145876E-02 
424	 3,73718912083453E-02 
425	 3,92813345907618E-02 
426	 3,25704912911036E-02 
427	 3,03412617320917E-02 
428	 3,11250139419863E-02 
429	 2,87667863856612E-02 
430	 2,77772073101997E-02 
431	 2,91590083164929E-02 
432	 3,20951020478457E-02 
433	 3,30869098563227E-02 
434	 2,95316706530979E-02 
435	 0,029151948128154 
436	 3,11732409728633E-02 
437	 2,99371384456492E-02 
438	 0,028746149061223 
439	 2,86289379656126E-02 
440	 2,76659063405292E-02 
441	 2,64626683465533E-02 
442	 2,59487311589189E-02 
443	 2,65485567618269E-02 
444	 2,80473175003336E-02 
445	 2,94571730749056E-02 
446	 3,07043558998387E-02 
447	 3,15328328421048E-02 
448	 3,01020418421567E-02 
449	 2,87571275418098E-02 
450	 3,24526542521924E-02 
451	 3,34276509813473E-02 
452	 3,08226559591087E-02 
453	 0,032961809163705 
454	 3,41637017539017E-02 
455	 2,92284668585957E-02 
456	 2,52733568072308E-02 
457	 2,43349063572226E-02 
458	 2,77241754206715E-02 
459	 3,13714800887273E-02 
460	 3,31579971597162E-02 
461	 3,31792201281581E-02 
462	 3,21410708490237E-02 
463	 0,030995436523625 
464	 2,97269914257436E-02 
465	 2,87746519188596E-02 
466	 2,91877578023403E-02 
467	 3,04457123389669E-02 
468	 3,18978722097129E-02 
469	 3,15333457643196E-02 
470	 0,030162863818397 
471	 2,98721432648198E-02 
472	 3,00201084621881E-02 
473	 3,08248285822716E-02 
474	 3,44111980123076E-02 
475	 3,64644359506136E-02 
476	 3,29199970523937E-02 
477	 2,92349065123331E-02 
478	 2,71257927718278E-02 
479	 2,76707075376746E-02 
480	 0,028736205446786 
481	 0,029319583455051 
482	 3,07121459385498E-02 
483	 3,17178603149434E-02 
484	 3,04661428353038E-02 
485	 2,97748403660338E-02 
486	 2,99057269927332E-02 
487	 2,82074119822325E-02 
488	 2,82259698324235E-02 
489	 3,21649539934359E-02 
490	 3,35137711803163E-02 
491	 0,032409618035584 
492	 3,16334622034195E-02 
493	 3,10328150504209E-02 
494	 0,030535318592921 
495	 2,87291731045005E-02 
496	 2,83427826092763E-02 
497	 3,23905666071635E-02 
498	 3,41074308715265E-02 
499	 0,032746545970411 
500	 3,13396033740909E-02 
501	 2,92996256202087E-02 
502	 0,026870080573064 
503	 0,027655590254421 
504	 3,04538724697298E-02 
505	 3,25375550416574E-02 
506	 3,37439911995754E-02 
507	 3,37247164677109E-02 
508	 3,19058252821333E-02 
509	 2,98818277329487E-02 
510	 2,91657033302137E-02 
511	 3,03664200919229E-02 
512	 3,24703527393974E-02 
513	 3,28069242093816E-02 
514	 3,24574925162131E-02 
515	 3,19338887950119E-02 
516	 3,14403235918059E-02 
517	 3,13474877386478E-02 
518	 3,21073877476005E-02 
519	 3,23079695959356E-02 
520	 3,21688855326618E-02 
521	 3,41957169862203E-02 
522	 3,52503825649848E-02 
523	 3,33337677336437E-02 
524	 3,27774018562405E-02 
525	 0,033428066167001 
526	 3,33281008716515E-02 
527	 3,30826833253273E-02 
528	 3,29512448941571E-02 
529	 3,34074244535449E-02 
530	 3,41220655297124E-02 
531	 3,46745076548042E-02 
532	 3,40994219525467E-02 
533	 3,28767979251244E-02 
534	 3,31276864827604E-02 
535	 3,37869289800262E-02 
536	 3,41302692186247E-02 
537	 3,36094732541925E-02 
538	 3,29598630788471E-02 
539	 3,36549366424903E-02 
540	 3,44740589224431E-02 
541	 3,49193085648482E-02 
542	 0,03461175835524 
543	 3,44153993534655E-02 
544	 3,51330532509899E-02 
545	 3,53105638729085E-02 
546	 3,49755287926246E-02 
547	 3,51368854088114E-02 
548	 3,49278357720773E-02 
549	 3,41728388230835E-02 
550	 3,46389325440974E-02 
551	 3,55909234843775E-02 
552	 3,55927541581263E-02 
553	 0,035726127788078 
554	 0,036052648792991 
555	 3,56461970910428E-02 
556	 3,51223527715947E-02 
557	 3,50171800236123E-02 
558	 3,51599413030102E-02 
559	 0,035378004114235 
560	 3,53258871274037E-02 
561	 3,52234791972548E-02 
562	 3,51857596865426E-02 
563	 3,53371092410829E-02 
564	 3,55541722418218E-02 
565	 0,035658955598479 
566	 3,58975339541494E-02 
567	 3,61447278621396E-02 
568	 0,035660384493053 
569	 3,56041353178683E-02 
570	 0,036634655200776 
571	 3,66608128483714E-02 
572	 3,61699161945368E-02 
573	 3,68917793491235E-02 
574	 3,80476622726795E-02 
575	 3,91694275572842E-02 
576	 0,039426668412297 
577	 3,89303070670003E-02 
578	 3,79274098908595E-02 
579	 3,79057509639694E-02 
580	 3,87924108161156E-02 
581	 3,91352234484259E-02 
582	 3,93359885115474E-02 
583	 3,95887004345408E-02 
584	 3,96636204705007E-02 
585	 3,98946585646866E-02 
586	 4,09956374781417E-02 
587	 4,11007958269989E-02 
588	 4,00840462787145E-02 
589	 4,00597228419839E-02 
590	 4,06786077986485E-02 
591	 4,14772342764455E-02 
592	 4,17934488932059E-02 
593	 4,16837380014036E-02 
594	 4,17981851683658E-02 
595	 4,16369820615936E-02 
596	 4,11210138907453E-02 
597	 4,11503154850125E-02 
598	 4,17076512751361E-02 
599	 4,26623286129027E-02 
600	 4,25440791399921E-02 
601	 4,13271528636603E-02 
602	 4,06095250608475E-02 
603	 4,05622338413974E-02 
604	 4,12231688483449E-02 
605	 4,17374656816345E-02 
606	 4,17787532886856E-02 
607	 4,09468418722646E-02 
608	 4,03316780286727E-02 
609	 4,03283970405591E-02 
610	 4,03162252115876E-02 
611	 4,03294381993083E-02 
612	 4,04735832868998E-02 
613	 4,00371353991913E-02 
614	 3,92561638634249E-02 
615	 3,95046336834049E-02 
616	 3,98247467333455E-02 
617	 3,96133000739999E-02 
618	 3,92689170664939E-02 
619	 3,91754007833419E-02 
620	 4,00244624326342E-02 
621	 4,05444410125153E-02 
622	 4,03772105473153E-02 
623	 4,01550079136364E-02 
624	 3,98243574005103E-02 
625	 0,039337103550268 
626	 3,98472052656225E-02 
627	 4,09618283803487E-02 
628	 4,08931572809067E-02 
629	 4,04485106258183E-02 
630	 4,00827195515129E-02 
631	 3,99501230908731E-02 
632	 0,040054564211413 
633	 4,03571284305463E-02 
634	 4,04435150635992E-02 
635	 4,04405575862313E-02 
636	 4,15353827627781E-02 
637	 4,23398450344346E-02 
638	 4,17356273241006E-02 
639	 4,13771405526704E-02 
640	 4,15674841799337E-02 
641	 4,22693045628651E-02 
642	 4,29114210728815E-02 
643	 4,31795471406833E-02 
644	 4,29124225595865E-02 
645	 0,042799043556008 
646	 4,37365601524098E-02 
647	 4,39235651098478E-02 
648	 4,32381783825284E-02 
649	 4,28776074463746E-02 
650	 0,042995348575193 
651	 4,35426118853694E-02 
652	 4,29466389728195E-02 
653	 4,18949846697713E-02 
654	 4,23170254150624E-02 
655	 4,24770179503563E-02 
656	 4,19417980154084E-02 
657	 4,16409371466597E-02 
658	 4,11740279117749E-02 
659	 4,01140739125676E-02 
660	 3,94408200856398E-02 
661	 3,92563980082486E-02 
662	 3,92481783851693E-02 
663	 3,89634566338403E-02 
664	 3,82458234136953E-02 
665	 3,78998631623758E-02 
666	 0,037828476976827 
667	 3,77179662945738E-02 
668	 3,77451834250986E-02 
669	 3,78465839929497E-02 
670	 3,76914746569508E-02 
671	 3,72952600961572E-02 
672	 3,67546064169889E-02 
673	 3,69716735919497E-02 
674	 3,76181075287666E-02 
675	 3,75413415735858E-02 
676	 3,74107145737442E-02 
677	 3,73866418705422E-02 
678	 3,69694971281025E-02 
679	 3,67190344830706E-02 
680	 3,73148220871107E-02 
681	 3,76538597495632E-02 
682	 3,76932265390439E-02 
683	 3,82381738143845E-02 
684	 0,038694654034745 
685	 3,87361594174201E-02 
686	 3,86469523999059E-02 
687	 3,89037099002597E-02 
688	 4,02917815793907E-02 
689	 4,14123653853476E-02 
690	 4,19969826727025E-02 
691	 4,29624308220003E-02 
692	 4,42316444299328E-02 
693	 4,57183489202142E-02 
694	 4,76493206847898E-02 
695	 4,99000085566662E-02 
696	 5,20406764768832E-02 
697	 5,44679072165767E-02 
698	 5,73543655992317E-02 
699	 0,060635046862011 
700	 6,41650548755772E-02 
701	 6,77733083482421E-02 
702	 7,17213419807344E-02 
703	 7,59745111882225E-02 
704	 8,03474463772464E-02 
705	 8,43873982519778E-02 
706	 8,78765787722074E-02 
707	 9,16549907654817E-02 
708	 9,56602513111799E-02 
709	 9,95400861373078E-02 
710	 0,10318277835065 
711	 0,106588570668368 
712	 0,109978335393702 
713	 0,113361465567508 
714	 0,116689407544809 
715	 0,119166889367775 
716	 0,121168243511679 
717	 0,124097227145917 
718	 0,126792407946758 
719	 0,128778137715696 
720	 0,130273986924834 
721	 0,131835508910688 
722	 0,134130899487727 
723	 0,135918015852548 
724	 0,137071348436304 
725	 0,138251462468119 
726	 0,139504172016521 
727	 0,140833822640786 
728	 0,141924906473095 
729	 0,142830502172485 
730	 0,143718669772762 
731	 0,144703973447105 
732	 0,145701698669273 
733	 0,146178433539007 
734	 0,146566638514666 
735	 0,147233115334774 
736	 0,147578347898178 
737	 0,14787262380996 
738	 0,149145518930449 
739	 0,14992555590918 
740	 0,149788069911094 
741	 0,14979413679244 
742	 0,15013000546606 
743	 0,150886389128628 
744	 0,151314190243351 
745	 0,151451837325556 
746	 0,152075007010437 
747	 0,152424974495059 
748	 0,15221897093265 
749	 0,152517890105789 
750	 0,153043685215491 
751	 0,153172000430806 
752	 0,153352545062751 
753	 0,153710686689192 
754	 0,154284274673858 
755	 0,154712371826238 
756	 0,154756605672177 
757	 0,154788826650231 
758	 0,154997776520706 
759	 0,155671739742726 
760	 0,156017261926693 
761	 0,155895252588016 
762	 0,155988629699475 
763	 0,156410366379435 
764	 0,157184028070972 
765	 0,157547536936474 
766	 0,157536354745871 
767	 0,15762096550129 
768	 0,157963146645345 
769	 0,158515404420928 
770	 0,158510017918385 
771	 0,158248988072054 
772	 0,158171636060797 
773	 0,158419742800704 
774	 0,158860743229069 
775	 0,158984744918121 
776	 0,158989790532 
777	 0,158988232039151 
778	 0,159037916857111 
779	 0,159109064013275 
780	 0,159135909355506 
781	 0,159426285370756 
782	 0,159864565716414 
783	 0,159733365204967 
784	 0,159680835410684 
785	 0,160069211923054 
786	 0,160057241340085 
787	 0,159932014712179 
788	 0,160418988677058 
789	 0,160771925941743 
790	 0,160816822788601 
791	 0,160805460263007 
792	 0,160985593039406 
793	 0,161487248945859 
794	 0,1614955324354 
795	 0,161285911281884 
796	 0,161769625334523 
797	 0,162069365676681 
798	 0,161998638010632 
799	 0,162175960580687 
800	 0,162308773348282 
801	 0,162129111346385 
802	 0,162159053930473 
803	 0,162452835707218 
804	 0,162942104631429 
805	 0,163146231661953 
806	 0,162980271328659 
807	 0,163127929452188 
808	 0,163485455591278 
809	 0,163871469842493 
810	 0,164022483949811 
811	 0,163998737829245 
812	 0,164192860404875 
813	 0,164144454410939 
814	 0,163766307992296 
815	 0,16367663577143 
816	 0,163942667935115 
817	 0,164548976098922 
818	 0,164755747558753 
819	 0,164567780624407 
820	 0,164569109065368 
821	 0,164623098082027 
822	 0,164703862577406 
823	 0,164946262896442 
824	 0,16523777431553 
825	 0,165424562186596 
826	 0,165995789468484 
827	 0,166676582485058 
828	 0,166167093686686 
829	 0,166096641928113 
830	 0,167067122529401 
831	 0,166944450312387 
832	 0,166335880414434 
833	 0,166373203360133 
834	 0,166877609575761 
835	 0,167495747401051 
836	 0,167141128554461 
837	 0,167023954239348 
838	 0,1676738585405 
839	 0,167841266883404 
840	 0,16758459229807 
841	 0,167191563106553 
842	 0,167269758018327 
843	 0,167770716955417 
844	 0,167895907482349 
845	 0,168199210129812 
846	 0,168806897859141 
847	 0,168480879588217 
848	 0,167704982570425 
849	 0,167345953308449 
850	 0,167676816276701 
851	 0,168280488592148 
852	 0,167464953318886 
853	 0,166857596650804 
854	 0,167266426695048 
855	 0,167647870531824 
856	 0,167884601687311 
857	 0,167981543613008 
858	 0,168110545437379 
859	 0,168194990037853 
860	 0,167818519884532 
861	 0,167521342567332 
862	 0,167575588066427 
863	 0,167600445437805 
864	 0,167933180534445 
865	 0,169022389060849 
866	 0,16931541649048 
867	 0,168791187253961 
868	 0,168649847423025 
869	 0,168281104742282 
870	 0,167637729008869 
871	 0,168017675268192 
872	 0,168880784641472 
873	 0,169430871920169 
874	 0,169934292965246 
875	 0,170319727482466 
876	 0,17027499841795 
877	 0,170279448799179 
878	 0,170563350912851 
879	 0,171101290338006 
880	 0,171558622800998 
881	 0,171572317270802 
882	 0,17099131323023 
883	 0,170373078590914 
884	 0,17127147769614 
885	 0,171843978609913 
886	 0,171655055421313 
887	 0,172311345512856 
888	 0,172764577766022 
889	 0,17206836154273 
890	 0,172027022202674 
891	 0,172500842271226 
892	 0,172395700338197 
893	 0,172715060468304 
894	 0,173543240247675 
895	 0,174016730907611 
896	 0,173607602291624 
897	 0,172108783983116 
898	 0,17126271278756 
899	 0,17128258058746 
900	 0,172007639921855 
901	 0,172067427976813 
902	 0,171468750200093 
903	 0,171981920830076 
904	 0,172677793146691 
905	 0,172887294154775 
906	 0,172364074772065 
907	 0,171591499838602 
908	 0,171296960353899 
909	 0,171489641671374 
910	 0,171970895255891 
911	 0,172087197590922 
912	 0,172227102522707 
913	 0,172456154463929 
914	 0,172027224992465 
915	 0,171763460552526 
916	 0,17254022117035 
917	 0,172174746300129 
918	 0,171238915939153 
919	 0,172366390617248 
920	 0,173123774260975 
921	 0,172894179458091 
922	 0,173115748801662 
923	 0,17319617119036 
924	 0,172715329413087 
925	 0,173032599916148 
926	 0,173711105517925 
927	 0,173571960738894 
928	 0,173770301754472 
929	 0,17428137078955 
930	 0,173775072798616 
931	 0,173476528714327 
932	 0,173907510746155 
933	 0,173326445523221 
934	 0,172321632461434 
935	 0,171901729634313 
936	 0,172697115372765 
937	 0,174043479874703 
938	 0,173655336301107 
939	 0,173529409350817 
940	 0,1741052213768 
941	 0,173557986552138 
942	 0,172743624121489 
943	 0,172586301069635 
944	 0,173820938982224 
945	 0,174765993954972 
946	 0,172056346859527 
947	 0,171315860224938 
948	 0,172791371576286 
949	 0,170911452222764 
950	 0,169261584641547 
951	 0,169815088297717 
952	 0,170981825997587 
953	 0,171666537324202 
954	 0,170815799613593 
955	 0,169562147937145 
956	 0,168661451103221 
957	 0,169388893803511 
958	 0,16927634721702 
959	 0,168069885629601 
960	 0,168902823989342 
961	 0,169928342896904 
962	 0,169701171053489 
963	 0,169367159854109 
964	 0,168704258141224 
965	 0,167166074732927 
966	 0,167648975732446 
967	 0,169772306246231 
968	 0,170196717456139 
969	 0,169384984519869 
970	 0,167943289532508 
971	 0,168353886149077 
972	 0,168694938983956 
973	 0,167233733903507 
974	 0,166302504969315 
975	 0,166504246537629 
976	 0,168178319443443 
977	 0,16869965601122 
978	 0,167801074059408 
979	 0,167250921722346 
980	 0,168032283404799 
981	 0,170179212851567 
982	 0,170727361360567 
983	 0,170077719723481 
984	 0,169093047868293 
985	 0,169703461694798 
986	 0,171420451472783 
987	 0,172591596154073 
988	 0,171693429010003 
989	 0,169900739962342 
990	 0,173752364019374 
991	 0,174442551573133 
992	 0,16894260110409 
993	 0,168776315423168 
994	 0,171537026264525 
995	 0,173490459411928 
996	 0,173023021298573 
997	 0,171993647408188 
998	 0,174805931005881 
999	 0,176362552527744 
1000	 0,175840385933971 
1001	 0,175816061563242 
1002	 0,175704296253805 
1003	 0,17515959219365 
1004	 0,173588799717121 
1005	 0,172358857480379 
1006	 0,172865485612955 
1007	 0,175112734737731 
1008	 0,177395903374342 
1009	 0,176864366914935 
1010	 0,175373901827995 
1011	 0,174190645809308 
1012	 0,175533959383933 
1013	 0,177117906694606 
1014	 0,177929039462305 
1015	 0,178806587611123 
1016	 0,179290287152665 
1017	 0,17906689349293 
1018	 0,179196883476684 
1019	 0,17950786946305 
1020	 0,179498273231933 
1021	 0,17883841259266 
1022	 0,178307476138821 
1023	 0,180249016165531 
1024	 0,181801404535433 
1025	 0,182212148372648 
1026	 0,182917982104819 
1027	 0,184256215002534 
1028	 0,18617024213949 
1029	 0,186802564190984 
1030	 0,186839698075815 
1031	 0,187111442743494 
1032	 0,183334636026112 
1033	 0,178825902769824 
1034	 0,181690930363678 
1035	 0,183034225314886 
1036	 0,181916318872022 
1037	 0,184025068749863 
1038	 0,189374880480939 
1039	 0,19464361278314 
1040	 0,18334700931418 
1041	 0,173190085269313 
1042	 0,178344813159584 
1043	 0,179411626621981 
1044	 0,181823112216381 
1045	 0,19533195761616 
1046	 0,196796747069007 
1047	 0,189448435717744 
1048	 0,193830825359119 
1049	 0,194027800070084 
1050	 0,188024725664118 
1051	 0,186149925438955 
1052	 0,187420996099707 
1053	 0,189785361214698 
1054	 0,184367357731656 
1055	 0,181155000603537 
1056	 0,18807192859294 
1057	 0,19390037624049 
1058	 0,194922967583885 
1059	 0,188440286169306 
1060	 0,185092283032451 
1061	 0,186461375446424 
1062	 0,190464328052372 
1063	 0,18717463669599 
1064	 0,179504677120774 
1065	 0,190741720877897 
1066	 0,197368299418903 
1067	 0,189568284433489 
1068	 0,174373527514181 
1069	 0,173182204528051 
1070	 0,197102088956282 
1071	 0,201725715153339 
1072	 0,197601531195125 
1073	 0,201790235514548 
1074	 0,202433289639174 
1075	 0,202295053636715 
