Wavelength	SCORFF200512.asd
325	 0,282478233330113 
326	 0,39775846294602 
327	 0,387887431238983 
328	 0,276483395763789 
329	 0,356186749251681 
330	 0,439238581290729 
331	 0,392247477603126 
332	 0,315251003969235 
333	 0,25818596835531 
334	 0,213356298114471 
335	 0,285635889391994 
336	 0,401924856159829 
337	 0,294413434792458 
338	 0,136661159320248 
339	 0,174199043776606 
340	 0,232035725963521 
341	 0,262547276127064 
342	 0,263774213125956 
343	 0,245843778538733 
344	 0,226492106461539 
345	 0,243890806686047 
346	 0,25761254082764 
347	 0,228680994084943 
348	 0,230309425768008 
349	 0,254757558340039 
350	 0,25912221270893 
351	 0,251402008349317 
352	 0,237728344652374 
353	 0,228064855388656 
354	 0,220632050064402 
355	 0,21340007369139 
356	 0,216236662039436 
357	 0,226746165421218 
358	 0,237639024924916 
359	 0,232921959496188 
360	 0,207218247368392 
361	 0,181204545342333 
362	 0,171586977723649 
363	 0,195547759167044 
364	 0,216670366489748 
365	 0,228791437484227 
366	 0,240169204521628 
367	 0,234943135775273 
368	 0,208043599500187 
369	 0,192662924661643 
370	 0,188195748836705 
371	 0,185366922896684 
372	 0,192694303368654 
373	 0,209086406793841 
374	 0,223653374176524 
375	 0,225800155238006 
376	 0,21165463626777 
377	 0,215136467525773 
378	 0,229066785333193 
379	 0,227737061192026 
380	 0,222691654128053 
381	 0,218129476985799 
382	 0,218955761047239 
383	 0,216925254330667 
384	 0,205386479793058 
385	 0,208658044736144 
386	 0,221721908747805 
387	 0,219814019219099 
388	 0,221453347468394 
389	 0,230279097970667 
390	 0,226071576864406 
391	 0,222132638677533 
392	 0,235723832669772 
393	 0,232403536085411 
394	 0,214886429498289 
395	 0,213386457355402 
396	 0,217621491503279 
397	 0,221786968722681 
398	 0,222397653753702 
399	 0,222906476992682 
400	 0,22992331828522 
401	 0,226723689045952 
402	 0,213450050111246 
403	 0,203360010223938 
404	 0,207899752214957 
405	 0,230205581268784 
406	 0,228647551231503 
407	 0,213086345065082 
408	 0,214371008246277 
409	 0,22076320632693 
410	 0,227625315135587 
411	 0,230712711241734 
412	 0,227698891708338 
413	 0,217534734823929 
414	 0,21600856762263 
415	 0,221155240376783 
416	 0,21972994942757 
417	 0,221640391725526 
418	 0,228271692782233 
419	 0,223958340898692 
420	 0,217057401591705 
421	 0,219742916180644 
422	 0,22133070742442 
423	 0,220371131850941 
424	 0,219980974757648 
425	 0,221819019509299 
426	 0,226010772237368 
427	 0,224365814827915 
428	 0,219858024391462 
429	 0,219555597704775 
430	 0,220032604666946 
431	 0,220769119431432 
432	 0,223695666963286 
433	 0,226066171374479 
434	 0,225471240064597 
435	 0,223402622931581 
436	 0,221466257225252 
437	 0,222719573515333 
438	 0,224149497423123 
439	 0,22451592087385 
440	 0,224676989031911 
441	 0,224375054020214 
442	 0,22321611916912 
443	 0,223786284805242 
444	 0,226011315258073 
445	 0,228108604105949 
446	 0,227045533813128 
447	 0,221792070392715 
448	 0,220318242068453 
449	 0,222746908086313 
450	 0,227319026911565 
451	 0,229576496991018 
452	 0,228615098330841 
453	 0,22833151652399 
454	 0,228728892812242 
455	 0,229457724343108 
456	 0,226922294377994 
457	 0,223162049214705 
458	 0,225204739021487 
459	 0,228034568387464 
460	 0,229446167817684 
461	 0,230094905525654 
462	 0,229981820367164 
463	 0,229089112042382 
464	 0,228834209525995 
465	 0,229092522033166 
466	 0,227752975391088 
467	 0,227227617798289 
468	 0,228878334386452 
469	 0,229710192653202 
470	 0,229502627155503 
471	 0,228571778566721 
472	 0,228678033391982 
473	 0,230107525340168 
474	 0,231227029773996 
475	 0,231190918200107 
476	 0,22940207806244 
477	 0,228765702392581 
478	 0,229062846317375 
479	 0,227710542232664 
480	 0,227043197297302 
481	 0,227935933661947 
482	 0,228272048294641 
483	 0,228729638611565 
484	 0,230734344091557 
485	 0,230695236367995 
486	 0,228864131103212 
487	 0,230003347467558 
488	 0,231448690623881 
489	 0,231125321384579 
490	 0,230111346412899 
491	 0,22918836979888 
492	 0,229848111570989 
493	 0,229855162905166 
494	 0,228721755666511 
495	 0,228351978909656 
496	 0,228496142447325 
497	 0,228706115439263 
498	 0,229421390222116 
499	 0,230303418255403 
500	 0,230369921873566 
501	 0,229297064547479 
502	 0,227306881406701 
503	 0,227364946397525 
504	 0,229093585761755 
505	 0,231263819811829 
506	 0,232322232941028 
507	 0,232016386961116 
508	 0,231946836976802 
509	 0,231876523717509 
510	 0,231589573215416 
511	 0,232177156266744 
512	 0,233421655051133 
513	 0,234433649836303 
514	 0,234644344471366 
515	 0,233902420797447 
516	 0,233227900415599 
517	 0,232682343270361 
518	 0,23213644472017 
519	 0,232509528835269 
520	 0,233716674492444 
521	 0,234721779851541 
522	 0,235142004391817 
523	 0,23478330914173 
524	 0,234494472012024 
525	 0,234529265007937 
526	 0,235179392609042 
527	 0,235286376173778 
528	 0,234720224021036 
529	 0,235220512767585 
530	 0,236029142249079 
531	 0,23614277858623 
532	 0,235160573126889 
533	 0,233911288776757 
534	 0,235193586254466 
535	 0,23674301806594 
536	 0,237122400755054 
537	 0,236402543123675 
538	 0,235312070041941 
539	 0,235068789218365 
540	 0,235438163021028 
541	 0,236166343015434 
542	 0,236357503733205 
543	 0,23641391168664 
544	 0,236756729333378 
545	 0,236735876520832 
546	 0,236650027576165 
547	 0,237711615519481 
548	 0,238683894082704 
549	 0,23890158327347 
550	 0,23840885462967 
551	 0,237815648735037 
552	 0,238005390317832 
553	 0,238700532106446 
554	 0,239502373385871 
555	 0,239315844932651 
556	 0,23857491138442 
557	 0,237732678548792 
558	 0,237357098905274 
559	 0,23742545696962 
560	 0,237626724786238 
561	 0,237553008854224 
562	 0,237049182413358 
563	 0,236404124881523 
564	 0,236119428927958 
565	 0,236791883750111 
566	 0,237279273057286 
567	 0,237487175112324 
568	 0,238261846171211 
569	 0,239151102910303 
570	 0,239788020942646 
571	 0,239888583534736 
572	 0,239852750347876 
573	 0,240595163719741 
574	 0,241561938775209 
575	 0,242626870435664 
576	 0,244224702623469 
577	 0,245606308918889 
578	 0,24594959843917 
579	 0,246476169040214 
580	 0,247393486263332 
581	 0,248453358011089 
582	 0,249162751498825 
583	 0,249264854745651 
584	 0,24916546328602 
585	 0,24940520240179 
586	 0,250861236880084 
587	 0,251637674922962 
588	 0,251535779309051 
589	 0,252512692149348 
590	 0,253878410025102 
591	 0,254879389382941 
592	 0,2552337855246 
593	 0,255201890884393 
594	 0,255738838441225 
595	 0,25589025315899 
596	 0,255439108808449 
597	 0,256003642829789 
598	 0,256968077947048 
599	 0,257186622979326 
600	 0,25695558550346 
601	 0,256432418677285 
602	 0,255894350449331 
603	 0,25565956882937 
604	 0,255928087790132 
605	 0,256128257607997 
606	 0,255949556705303 
607	 0,254891896030794 
608	 0,25387867569792 
609	 0,253344572251968 
610	 0,253301600458935 
611	 0,253410702824295 
612	 0,253257158324963 
613	 0,252688178479786 
614	 0,251930587851235 
615	 0,251839489416442 
616	 0,251954416231254 
617	 0,251946544760134 
618	 0,251646361324439 
619	 0,251420802790079 
620	 0,25208394928289 
621	 0,252561236782096 
622	 0,252492569256136 
623	 0,252109471875197 
624	 0,251600753206614 
625	 0,251168884995431 
626	 0,251247526108993 
627	 0,251759510858132 
628	 0,252224653958758 
629	 0,252547556948571 
630	 0,252689809246243 
631	 0,252915008964146 
632	 0,253245336520662 
633	 0,253643718935275 
634	 0,254277307831068 
635	 0,255027191243939 
636	 0,255166616393063 
637	 0,255544114589383 
638	 0,256813160028214 
639	 0,257510358083112 
640	 0,257727146130572 
641	 0,258380440877368 
642	 0,259168421846336 
643	 0,259950286729964 
644	 0,260592624674743 
645	 0,260928765215241 
646	 0,26077741417221 
647	 0,260629325697351 
648	 0,260519333465838 
649	 0,260050374548065 
650	 0,259538993329973 
651	 0,259145412042729 
652	 0,258201318307857 
653	 0,257133342964587 
654	 0,257054170818683 
655	 0,256557640757138 
656	 0,255377323237661 
657	 0,254762556582515 
658	 0,254048560683406 
659	 0,25251361799161 
660	 0,251253309989192 
661	 0,250353911997999 
662	 0,249354149425466 
663	 0,248214393754039 
664	 0,246985794706191 
665	 0,24625256832651 
666	 0,245773275096496 
667	 0,245049564270506 
668	 0,24461509594953 
669	 0,244487946249751 
670	 0,244189160410798 
671	 0,243762592769161 
672	 0,24329009096593 
673	 0,243215332946378 
674	 0,243374267754532 
675	 0,243228512702151 
676	 0,24283473797191 
677	 0,242336152865557 
678	 0,242391618720778 
679	 0,242848922550114 
680	 0,243451661137834 
681	 0,244204332079672 
682	 0,244965553828327 
683	 0,245330393011325 
684	 0,245881762635613 
685	 0,246973027753382 
686	 0,248314258317804 
687	 0,249941560539719 
688	 0,251973615747501 
689	 0,254332738703365 
690	 0,257028829880799 
691	 0,260083793277949 
692	 0,263960836493212 
693	 0,268994910746106 
694	 0,273902932272265 
695	 0,278697520201218 
696	 0,284092300098548 
697	 0,290015334111409 
698	 0,296316726274146 
699	 0,302213152148364 
700	 0,308040765495582 
701	 0,314338924270001 
702	 0,320575584397791 
703	 0,326588082730965 
704	 0,332446174929544 
705	 0,337847141356932 
706	 0,342627675348412 
707	 0,347192865584439 
708	 0,35156367614568 
709	 0,355604041250303 
710	 0,359636838587667 
711	 0,363677753855799 
712	 0,367314074415192 
713	 0,370493057817636 
714	 0,373212044552453 
715	 0,375898133547664 
716	 0,378550926674533 
717	 0,380943420356292 
718	 0,383029832905824 
719	 0,384794625844623 
720	 0,386280607314897 
721	 0,38775336644963 
722	 0,389534700046787 
723	 0,390957267065237 
724	 0,391971446090659 
725	 0,39298911433757 
726	 0,393990947780401 
727	 0,394957520643037 
728	 0,395763093709161 
729	 0,396477643831697 
730	 0,39725859618869 
731	 0,397973955740544 
732	 0,398594933907237 
733	 0,399168615592006 
734	 0,399779846995551 
735	 0,40045012568269 
736	 0,400377475410775 
737	 0,400097053718021 
738	 0,401355849699909 
739	 0,402280260014876 
740	 0,402272921729487 
741	 0,402351240581607 
742	 0,402570264299772 
743	 0,40289568455052 
744	 0,403204857298598 
745	 0,403438138567375 
746	 0,403552796135397 
747	 0,403528841812172 
748	 0,403422417755598 
749	 0,403668738861697 
750	 0,404045406952828 
751	 0,404120888983657 
752	 0,40446440584868 
753	 0,405085831270061 
754	 0,405471138427606 
755	 0,405620744756562 
756	 0,405571540349946 
757	 0,40558372372769 
758	 0,405819261541766 
759	 0,406524691390628 
760	 0,40704460878834 
761	 0,407204143107445 
762	 0,407355650557253 
763	 0,407663657413827 
764	 0,40823965993748 
765	 0,40859705685442 
766	 0,408796935865307 
767	 0,40924993064746 
768	 0,409808996321523 
769	 0,410309296410341 
770	 0,410163110751279 
771	 0,409946078927152 
772	 0,410371040877753 
773	 0,410463523119717 
774	 0,410244084363218 
775	 0,410458705265953 
776	 0,41073122427795 
777	 0,410866433018022 
778	 0,410979098414639 
779	 0,410924437896432 
780	 0,410480769606984 
781	 0,410184602430817 
782	 0,410169787787081 
783	 0,410294845783792 
784	 0,410477603866065 
785	 0,410649944400059 
786	 0,410777670073925 
787	 0,410928144953908 
788	 0,411257783149544 
789	 0,411259070751584 
790	 0,410955429152782 
791	 0,411091211784886 
792	 0,411420979043961 
793	 0,411717603910599 
794	 0,411953342815468 
795	 0,41207457703766 
796	 0,411973708215234 
797	 0,412048579561898 
798	 0,412387852043024 
799	 0,412670552175919 
800	 0,412866875348031 
801	 0,41297912647196 
802	 0,413251000918269 
803	 0,413574512240928 
804	 0,413501701355035 
805	 0,413691393966733 
806	 0,414289926247287 
807	 0,414687039826422 
808	 0,414824154515653 
809	 0,41470607508514 
810	 0,41465517368923 
811	 0,414771497966186 
812	 0,415126985196498 
813	 0,41531814720559 
814	 0,415218437675255 
815	 0,415266408476553 
816	 0,41538661454777 
817	 0,415443989571839 
818	 0,415488928984785 
819	 0,415557513810884 
820	 0,41573996045808 
821	 0,415860033025963 
822	 0,415871849441799 
823	 0,416088434775966 
824	 0,416284012935867 
825	 0,416143445671949 
826	 0,41663559991291 
827	 0,417528016914265 
828	 0,417321770044002 
829	 0,417188955083723 
830	 0,417646477599793 
831	 0,417766346866966 
832	 0,417759043108431 
833	 0,418035345496611 
834	 0,418606163114055 
835	 0,419359441371208 
836	 0,420016432314854 
837	 0,420222911648234 
838	 0,419887942830004 
839	 0,419898958621975 
840	 0,420116988249408 
841	 0,420190988686033 
842	 0,420175657705217 
843	 0,420101550926985 
844	 0,419990069261935 
845	 0,420217324372917 
846	 0,420832615274281 
847	 0,420665855712131 
848	 0,420109480419848 
849	 0,419903314702445 
850	 0,420060480996778 
851	 0,420312865777357 
852	 0,419752809264941 
853	 0,419042214585526 
854	 0,418607326273208 
855	 0,418595355431333 
856	 0,418850379150723 
857	 0,419126153718772 
858	 0,418919761517986 
859	 0,418393233143167 
860	 0,418539293602356 
861	 0,418542930003417 
862	 0,41811785736311 
863	 0,418222499375749 
864	 0,418853790021017 
865	 0,419847622623365 
866	 0,420127974819065 
867	 0,419870000265262 
868	 0,420496861497668 
869	 0,421129453746429 
870	 0,421352670211432 
871	 0,42133429284404 
872	 0,421259843612345 
873	 0,42134435730095 
874	 0,421831586934149 
875	 0,422625484492829 
876	 0,423328224777716 
877	 0,423860364682152 
878	 0,424174194312851 
879	 0,424325142861697 
880	 0,424599351309946 
881	 0,425244079370632 
882	 0,425255818428817 
883	 0,424779760955808 
884	 0,424585143743784 
885	 0,425272616122139 
886	 0,426756000598069 
887	 0,427275188199873 
888	 0,427309710065192 
889	 0,427419870177917 
890	 0,427477846533356 
891	 0,427421459075223 
892	 0,427082805388039 
893	 0,427023020465528 
894	 0,42732048998522 
895	 0,427493270804624 
896	 0,427203512715295 
897	 0,426299035610979 
898	 0,425793096465652 
899	 0,425664754301967 
900	 0,425549617625387 
901	 0,425505180694313 
902	 0,425572150945285 
903	 0,425984099320019 
904	 0,426051051449532 
905	 0,425447556520698 
906	 0,425219696760441 
907	 0,425126428249324 
908	 0,424643891916924 
909	 0,424313267382616 
910	 0,424347362614749 
911	 0,425035435521986 
912	 0,425415898429361 
913	 0,425055386665463 
914	 0,42433074157808 
915	 0,424334510500936 
916	 0,426077428188015 
917	 0,42669681798776 
918	 0,426277910378273 
919	 0,426721533990591 
920	 0,426473735476725 
921	 0,425493214527314 
922	 0,425997779423261 
923	 0,426723024200801 
924	 0,426626740024824 
925	 0,427187647435567 
926	 0,427981162142138 
927	 0,427854771570906 
928	 0,428026398135668 
929	 0,428549192890651 
930	 0,428200303284035 
931	 0,42831747784815 
932	 0,429466854829062 
933	 0,429733780925415 
934	 0,429634560572032 
935	 0,430092134671431 
936	 0,430525269678699 
937	 0,430706009029092 
938	 0,430317939458361 
939	 0,430086939108154 
940	 0,430265238659583 
941	 0,430471406067882 
942	 0,43054945514985 
943	 0,43042240052326 
944	 0,430698910357285 
945	 0,430919513838803 
946	 0,430044679625686 
947	 0,429483153173141 
948	 0,429560288837572 
949	 0,429947887691669 
950	 0,429581185945173 
951	 0,428121438025367 
952	 0,427781393774864 
953	 0,42763145004301 
954	 0,426362467911394 
955	 0,426364941466238 
956	 0,427303629103382 
957	 0,427040203951551 
958	 0,426717456482608 
959	 0,426632376758494 
960	 0,426329833837135 
961	 0,426505079464694 
962	 0,42742964003556 
963	 0,426767604919524 
964	 0,425331159570204 
965	 0,424832829016349 
966	 0,425577042821982 
967	 0,42684911092609 
968	 0,426246160260843 
969	 0,425079642021526 
970	 0,424134046653342 
971	 0,424215379571878 
972	 0,424826219509025 
973	 0,42546194317888 
974	 0,426731845452534 
975	 0,427395898488571 
976	 0,425145871259558 
977	 0,424751672168594 
978	 0,42646078007743 
979	 0,4261277330958 
980	 0,425682255890689 
981	 0,426107337432014 
982	 0,427511536817088 
983	 0,428135111600903 
984	 0,426540131221456 
985	 0,42749217452444 
986	 0,429751399152661 
987	 0,429170750143895 
988	 0,428826669629447 
989	 0,429241056576378 
990	 0,428818406471757 
991	 0,42981513681676 
992	 0,432703747132822 
993	 0,432889101291654 
994	 0,432025864301451 
995	 0,432231166092401 
996	 0,432618115046819 
997	 0,432819234782863 
998	 0,432318191927309 
999	 0,432527479205127 
1000	 0,434077153717958 
1001	 0,438078060707661 
1002	 0,438909439696368 
1003	 0,434970822653347 
1004	 0,434844626171806 
1005	 0,436224743761596 
1006	 0,43633806949173 
1007	 0,438056061588014 
1008	 0,440045557203882 
1009	 0,439332978663829 
1010	 0,437059630916606 
1011	 0,434435509746661 
1012	 0,433643306235976 
1013	 0,436088372217402 
1014	 0,441273586575729 
1015	 0,444130160131922 
1016	 0,443298214337639 
1017	 0,438892104074476 
1018	 0,439696771860153 
1019	 0,442990342014861 
1020	 0,44272639353317 
1021	 0,440581307243686 
1022	 0,438281121457225 
1023	 0,439264613850438 
1024	 0,442496693287793 
1025	 0,445761731581928 
1026	 0,441019531796394 
1027	 0,437343520428902 
1028	 0,440383908372579 
1029	 0,443719752343037 
1030	 0,445082236709931 
1031	 0,44308026731444 
1032	 0,443592426418756 
1033	 0,445185435538324 
1034	 0,442456993356695 
1035	 0,443296156072911 
1036	 0,446771041006404 
1037	 0,440721283027055 
1038	 0,440242596837826 
1039	 0,448319633353655 
1040	 0,442549269814263 
1041	 0,434776059328534 
1042	 0,435991770452566 
1043	 0,442732067167692 
1044	 0,448630631429343 
1045	 0,445927122446426 
1046	 0,446577883389851 
1047	 0,449599418420921 
1048	 0,44573165176031 
1049	 0,448810095039455 
1050	 0,458372021821339 
1051	 0,455303902488432 
1052	 0,448992031850975 
1053	 0,444719064096227 
1054	 0,442970960817387 
1055	 0,443043298042777 
1056	 0,445023357346004 
1057	 0,45855725760288 
1058	 0,469048882006758 
1059	 0,454734720142136 
1060	 0,448056705917162 
1061	 0,451074060809298 
1062	 0,451587547306628 
1063	 0,44970922260029 
1064	 0,447050719177595 
1065	 0,4511273449291 
1066	 0,453753367073778 
1067	 0,450607014253684 
1068	 0,438883810088731 
1069	 0,437343889697422 
1070	 0,455609210392471 
1071	 0,450857523199496 
1072	 0,441385154979129 
1073	 0,451958698249133 
1074	 0,456421442904341 
1075	 0,453942401264673 
