Wavelength	SCORFF200616.asd
325	 0,455423506214192 
326	 0,341221281894887 
327	 0,156936041550404 
328	 0,021908701474831 
329	 0,128801523849015 
330	 0,224059185537649 
331	 0,12962418485431 
332	-0,037141031441378 
333	-0,119848893867736 
334	 7,84265870802187E-02 
335	 0,280301448141944 
336	 0,284601150721369 
337	 0,162178623022903 
338	 5,92260986951878E-04 
339	-0,034273937353072 
340	-0,018769281073627 
341	-1,20688331005773E-04 
342	-3,79047878203257E-02 
343	-3,19142817462934E-03 
344	 9,47609109139779E-02 
345	 0,102586755087209 
346	 8,38861352280398E-02 
347	 9,83710061731072E-02 
348	 0,109107913994526 
349	 0,11267134153351 
350	 0,117489669806053 
351	 0,115678212794765 
352	 0,106440497500531 
353	 0,10524918768726 
354	 8,88961509585294E-02 
355	 2,77714626172987E-02 
356	 3,91282146328917E-02 
357	 0,103098393520216 
358	 9,97480934953573E-02 
359	 8,29217762652402E-02 
360	 7,10998530553994E-02 
361	 3,13874748811328E-02 
362	 6,43156244996191E-03 
363	 5,89491851516523E-02 
364	 0,083511642988708 
365	 6,91332883825965E-02 
366	 5,98532524880983E-02 
367	 4,25771979465496E-02 
368	 1,52006260772048E-02 
369	 2,64365536947215E-02 
370	 5,53751869927942E-02 
371	 5,02956597104122E-02 
372	 3,50975971324786E-02 
373	 2,13062240041672E-02 
374	 2,88315450242708E-02 
375	 4,09661422443475E-02 
376	 4,55502056839434E-02 
377	 4,66028042370453E-02 
378	 4,54236518713231E-02 
379	 4,36447514560021E-02 
380	 4,07517882992606E-02 
381	 4,22347503784431E-02 
382	 0,077151043376092 
383	 9,55193002923545E-02 
384	 5,72082785773431E-02 
385	 3,10428587706835E-02 
386	 2,78332705745732E-02 
387	 3,71367419200143E-02 
388	 5,17100053826166E-02 
389	 6,08651300138599E-02 
390	 3,53843395167039E-02 
391	 8,67217022595848E-03 
392	 2,46803127299074E-02 
393	 2,79231983939981E-02 
394	 1,90151536474504E-02 
395	 4,00030757543574E-02 
396	 4,57501533494838E-02 
397	 2,12157824250331E-02 
398	 2,74053839863495E-02 
399	 4,37532809568167E-02 
400	 3,06493282850327E-02 
401	 2,03424229404052E-02 
402	 1,84912094969598E-02 
403	 1,04337181213349E-02 
404	 1,26439162769997E-02 
405	 3,25244318297723E-02 
406	 3,07066288935861E-02 
407	 1,81826771176076E-02 
408	 2,84884491446805E-02 
409	 3,56934418576434E-02 
410	 3,35438505009967E-02 
411	 3,04139182990098E-02 
412	 2,60506217761606E-02 
413	 0,020268411841447 
414	 2,20328041747125E-02 
415	 2,85369403021844E-02 
416	 2,95105953895318E-02 
417	 2,87748182822679E-02 
418	 2,73567718394308E-02 
419	 2,17878976981011E-02 
420	 1,78856687810734E-02 
421	 2,32795836586659E-02 
422	 0,023136854135074 
423	 0,017997266980974 
424	 0,021565540293016 
425	 0,023915295550092 
426	 0,019917116816173 
427	 1,94235690311456E-02 
428	 2,10053557755405E-02 
429	 1,96440220172531E-02 
430	 1,89850795019916E-02 
431	 1,98848022870534E-02 
432	 2,15675787849829E-02 
433	 0,02251456174619 
434	 0,021589639058274 
435	 2,18860755779838E-02 
436	 2,32291233247468E-02 
437	 2,41164322897614E-02 
438	 0,022923368334536 
439	 1,96556794479921E-02 
440	 1,88297304796783E-02 
441	 1,94033523468742E-02 
442	 1,95107550876618E-02 
443	 1,93615626080081E-02 
444	 0,019165121594235 
445	 1,97571297164682E-02 
446	 2,00318837025228E-02 
447	 1,93810647485219E-02 
448	 1,89055502860368E-02 
449	 1,86001447096346E-02 
450	 1,78982057926662E-02 
451	 1,97660914149058E-02 
452	 2,37031785014849E-02 
453	 2,35494511731883E-02 
454	 0,021400284135046 
455	 0,0194376823366 
456	 1,59378747585388E-02 
457	 1,29459858154274E-02 
458	 1,63962564160903E-02 
459	 1,95111269665761E-02 
460	 1,96652588805204E-02 
461	 2,05193243241689E-02 
462	 2,16198164612002E-02 
463	 2,19842085644252E-02 
464	 2,02786902294358E-02 
465	 1,71829735668836E-02 
466	 1,56219592739728E-02 
467	 1,67092188399994E-02 
468	 2,04426365364369E-02 
469	 2,02088705066154E-02 
470	 1,75748100907958E-02 
471	 1,76515393994658E-02 
472	 1,68893096836249E-02 
473	 1,55954854963367E-02 
474	 2,03338300814536E-02 
475	 2,46326902811628E-02 
476	 2,21102896023188E-02 
477	 1,98029441658643E-02 
478	 1,88648671698435E-02 
479	 1,82994939945206E-02 
480	 1,70615713904835E-02 
481	 1,53245798632086E-02 
482	 1,82035430010501E-02 
483	 2,18004761355173E-02 
484	 1,97614309924483E-02 
485	 1,81238671518323E-02 
486	 1,83569610737886E-02 
487	 1,94164177333264E-02 
488	 2,02692240247791E-02 
489	 2,01490563074049E-02 
490	 1,98937225234134E-02 
491	 0,019578287120791 
492	 1,92250067901748E-02 
493	 1,75891556467356E-02 
494	 1,50682730899047E-02 
495	 1,59353740059582E-02 
496	 1,79127184422439E-02 
497	 1,81071424818776E-02 
498	 1,83089990470777E-02 
499	 1,87112142292505E-02 
500	 0,018844244519257 
501	 1,87067972232523E-02 
502	 1,83093013718763E-02 
503	 1,75593984708061E-02 
504	 0,017276700584475 
505	 1,88754395412931E-02 
506	 0,020501769515367 
507	 2,12255893309997E-02 
508	 1,99615971031294E-02 
509	 1,83633657018625E-02 
510	 1,79773868593063E-02 
511	 1,83894776941041E-02 
512	 1,92405196701592E-02 
513	 0,020020710021252 
514	 0,019904850515881 
515	 1,87211300081546E-02 
516	 1,80296284878364E-02 
517	 1,77087398729493E-02 
518	 1,73141645395688E-02 
519	 1,75742546965203E-02 
520	 0,018490322987662 
521	 1,96269620835159E-02 
522	 1,99250615176199E-02 
523	 1,88175024378845E-02 
524	 1,87157302514121E-02 
525	 1,95097599668621E-02 
526	 2,02172109703026E-02 
527	 1,99473588175422E-02 
528	 1,86745818687077E-02 
529	 1,82662637554647E-02 
530	 1,85660397310424E-02 
531	 1,91995093040255E-02 
532	 1,88264345567568E-02 
533	 1,77472706433304E-02 
534	 1,79165801804245E-02 
535	 1,84313764003553E-02 
536	 1,86997192170113E-02 
537	 0,018484192899835 
538	 1,80272038945865E-02 
539	 1,77431157285965E-02 
540	 1,83703113873076E-02 
541	 0,019647608906546 
542	 1,92751841975033E-02 
543	 1,84967815508242E-02 
544	 1,85988259249194E-02 
545	 0,018334084560742 
546	 1,78255180397754E-02 
547	 1,80959223309588E-02 
548	 1,82195254216494E-02 
549	 1,79356886941447E-02 
550	 1,88108784680399E-02 
551	 1,99212211621618E-02 
552	 1,95769165169678E-02 
553	 1,96257464066469E-02 
554	 2,02029511357343E-02 
555	 1,96692473584921E-02 
556	 0,018963686522297 
557	 1,88872208342242E-02 
558	 1,89223962498257E-02 
559	 1,89184767788477E-02 
560	 1,87107382019255E-02 
561	 1,85397574826773E-02 
562	 1,85405653427457E-02 
563	 1,89022738992778E-02 
564	 0,019126065923522 
565	 0,01854342325653 
566	 1,85975987374393E-02 
567	 1,93117499857817E-02 
568	 1,94170257877945E-02 
569	 1,92600917597769E-02 
570	 1,90813200900783E-02 
571	 1,86328640979722E-02 
572	 0,018421228056929 
573	 1,96979647671319E-02 
574	 2,03099777889274E-02 
575	 1,97391222652633E-02 
576	 1,97956294235988E-02 
577	 2,00472487239862E-02 
578	 1,98839212730876E-02 
579	 0,020089553663993 
580	 0,020638394718452 
581	 2,09770924488851E-02 
582	 2,09448179585123E-02 
583	 2,05350817670839E-02 
584	 0,02051656134831 
585	 2,08540868100946E-02 
586	 2,13312651324392E-02 
587	 2,13678964453221E-02 
588	 2,09469612939311E-02 
589	 2,08423464815134E-02 
590	 2,12355457193128E-02 
591	 2,21826261457196E-02 
592	 2,23701652995336E-02 
593	 2,17637210764951E-02 
594	 2,08914409574957E-02 
595	 0,020766373489313 
596	 2,17033148481369E-02 
597	 2,20025948323851E-02 
598	 2,18789704110747E-02 
599	 0,021955085621398 
600	 2,18973160055401E-02 
601	 2,17118220067837E-02 
602	 2,17151540561649E-02 
603	 2,16709769246585E-02 
604	 2,14438584079157E-02 
605	 2,18506435858294E-02 
606	 2,24302091952272E-02 
607	 2,17488518114391E-02 
608	 2,09125122651755E-02 
609	 2,04510675619228E-02 
610	 2,07170349179553E-02 
611	 2,12234084292236E-02 
612	 2,13367888484228E-02 
613	 2,07952648350288E-02 
614	 2,00246208813447E-02 
615	 2,07213748536728E-02 
616	 2,12428310041699E-02 
617	 2,06274499674129E-02 
618	 2,03539332175886E-02 
619	 2,04743893621044E-02 
620	 0,020644998926465 
621	 2,09666771923848E-02 
622	 2,13331447144642E-02 
623	 2,12647275233633E-02 
624	 2,08938937679813E-02 
625	 2,04131342960221E-02 
626	 2,03116656922813E-02 
627	 2,06464600064589E-02 
628	 0,02134370384417 
629	 2,14567403948518E-02 
630	 0,020658154639615 
631	 0,020562272204353 
632	 2,09577232444121E-02 
633	 2,11821946682971E-02 
634	 2,12497370202491E-02 
635	 2,12375387752396E-02 
636	 2,15412011796322E-02 
637	 2,19623916193259E-02 
638	 2,22918448030449E-02 
639	 2,21946087750105E-02 
640	 2,19013535900112E-02 
641	 2,21982754927521E-02 
642	 2,22236991185351E-02 
643	 2,18018061177081E-02 
644	 2,20100626619343E-02 
645	 2,26699958163729E-02 
646	 0,023424217804989 
647	 2,33642377466842E-02 
648	 2,25737752790836E-02 
649	 0,022211117702826 
650	 0,022127443960029 
651	 2,21864113906794E-02 
652	 2,19927372577664E-02 
653	 2,17572193062538E-02 
654	 2,21166608544926E-02 
655	 2,19737766744625E-02 
656	 2,11729394884176E-02 
657	 0,020886709537665 
658	 0,020796051172864 
659	 2,05071075841047E-02 
660	 0,020421886365098 
661	 2,04653907075905E-02 
662	 2,02024056393576E-02 
663	 0,019909056706576 
664	 1,97559903448167E-02 
665	 1,99107336169199E-02 
666	 2,00679241376177E-02 
667	 0,019710451431223 
668	 0,019778120876227 
669	 2,02088506660475E-02 
670	 1,96661072808425E-02 
671	 1,89903993477151E-02 
672	 1,88887101543659E-02 
673	 1,90857055483332E-02 
674	 1,94066794750678E-02 
675	 0,019599898759432 
676	 1,95221380543404E-02 
677	 1,92399784748017E-02 
678	 1,94780425634455E-02 
679	 1,99433210772765E-02 
680	 2,02163765203789E-02 
681	 2,04306005693812E-02 
682	 2,05701668576229E-02 
683	 2,05172030633623E-02 
684	 0,020489727380265 
685	 2,06076133687273E-02 
686	 0,020660430951821 
687	 2,07151338740293E-02 
688	 2,09109279012508E-02 
689	 2,14190536380429E-02 
690	 2,21636808634379E-02 
691	 2,25885441134143E-02 
692	 2,29425013825378E-02 
693	 2,34952747407064E-02 
694	 2,45437181260675E-02 
695	 0,025878249764829 
696	 2,67403468336741E-02 
697	 2,80618091155994E-02 
698	 3,00510250510733E-02 
699	 3,14528692887438E-02 
700	 3,28047828771209E-02 
701	 3,49385711003053E-02 
702	 3,70327106651279E-02 
703	 3,89494384059655E-02 
704	 4,09867556609367E-02 
705	 4,29860137405009E-02 
706	 4,48435615756665E-02 
707	 4,65274063258991E-02 
708	 0,048341550353276 
709	 5,08962124774159E-02 
710	 5,30004920768966E-02 
711	 5,43153143125194E-02 
712	 5,52074337074287E-02 
713	 0,056191941920129 
714	 5,77029500450515E-02 
715	 0,059142184676782 
716	 6,04237909191022E-02 
717	 6,17430827770331E-02 
718	 6,25710125269769E-02 
719	 6,28658806745403E-02 
720	 6,37686747662638E-02 
721	 6,49779904670185E-02 
722	 6,59706132363445E-02 
723	 6,66034445394316E-02 
724	 6,69185660466156E-02 
725	 6,72073056196134E-02 
726	 6,75971417344727E-02 
727	 6,81457252703166E-02 
728	 6,85362593518275E-02 
729	 6,88833718719956E-02 
730	 6,94855871669561E-02 
731	 6,99591679658729E-02 
732	 7,02258654861583E-02 
733	 7,04974452868426E-02 
734	 7,08073593810967E-02 
735	 7,11695254310769E-02 
736	 0,071435200802886 
737	 7,16720913159116E-02 
738	 7,21959493186888E-02 
739	 0,072310594081167 
740	 7,19132211706741E-02 
741	 7,19825568561117E-02 
742	 7,24606170071302E-02 
743	 7,31625790316614E-02 
744	 7,33161132094965E-02 
745	 7,30564376168817E-02 
746	 7,34881670410139E-02 
747	 7,36089411869377E-02 
748	 7,30230426598376E-02 
749	 7,28866145042146E-02 
750	 7,32313675015429E-02 
751	 7,38890288041758E-02 
752	 0,074326301249604 
753	 7,44451268712028E-02 
754	 7,46266202053314E-02 
755	 7,47235227434474E-02 
756	 7,46508747903458E-02 
757	 7,46548009657782E-02 
758	 7,47599488836991E-02 
759	 7,49235260569756E-02 
760	 7,51715629397548E-02 
761	 7,54009144982709E-02 
762	 7,50615663598473E-02 
763	 7,50186412228083E-02 
764	 7,60126183258444E-02 
765	 7,62487001839211E-02 
766	 7,58577820089304E-02 
767	 7,61295744596924E-02 
768	 7,63732329867344E-02 
769	 7,63607452535541E-02 
770	 7,63170397683202E-02 
771	 7,63003960022121E-02 
772	 7,63604229946448E-02 
773	 7,66191192872596E-02 
774	 7,70219032507415E-02 
775	 7,73732634696923E-02 
776	 7,75247649193821E-02 
777	 0,077400595115063 
778	 7,71302411847937E-02 
779	 7,68722229786431E-02 
780	 7,68145451407441E-02 
781	 7,69840490905748E-02 
782	 7,73260605055784E-02 
783	 7,76598457761373E-02 
784	 0,077844501486307 
785	 0,077809543436327 
786	 7,78227959430357E-02 
787	 7,79134149187744E-02 
788	 0,078067158919926 
789	 7,80411732689173E-02 
790	 7,78642857852953E-02 
791	 7,80096609827464E-02 
792	 7,80944031880362E-02 
793	 7,78690676957701E-02 
794	 7,81906610085417E-02 
795	 7,88097492903332E-02 
796	 7,89215204947622E-02 
797	 7,88196911918322E-02 
798	 7,86703769274984E-02 
799	 7,88425402479529E-02 
800	 7,89985060549885E-02 
801	 7,88323979035402E-02 
802	 0,078912149525443 
803	 7,91499175009722E-02 
804	 7,90050817979303E-02 
805	 7,91118901648953E-02 
806	 7,95636076396909E-02 
807	 7,95016534264412E-02 
808	 0,079432615613715 
809	 7,99302288345637E-02 
810	 8,02324503304726E-02 
811	 8,02983025949556E-02 
812	 8,05144728436099E-02 
813	 8,04842875886273E-02 
814	 8,01846735625847E-02 
815	 0,080491221432425 
816	 8,08947753875032E-02 
817	 8,07174072806466E-02 
818	 8,04890541403537E-02 
819	 8,04796165310322E-02 
820	 8,11598543387617E-02 
821	 8,15992893964847E-02 
822	 0,081427825654309 
823	 0,081491160321644 
824	 8,16610981725557E-02 
825	 8,16677681546888E-02 
826	 8,17690425133858E-02 
827	 8,19892960354667E-02 
828	 8,22072284085736E-02 
829	 0,082476811603064 
830	 8,27496399173129E-02 
831	 8,25733148283798E-02 
832	 8,22218340134177E-02 
833	 8,21264500231054E-02 
834	 8,29596825601368E-02 
835	 8,42566065302079E-02 
836	 8,40155352536617E-02 
837	 0,083495542139922 
838	 8,33982516599435E-02 
839	 8,34371813742539E-02 
840	 8,35030714294809E-02 
841	 8,34707119945418E-02 
842	 8,34912976229769E-02 
843	 8,36289836369889E-02 
844	 8,39795099783362E-02 
845	 8,42604267991042E-02 
846	 8,43222644283207E-02 
847	 8,43782645185526E-02 
848	 8,43846477136461E-02 
849	 8,42479053035577E-02 
850	 8,42339508440836E-02 
851	 0,084404745136934 
852	 8,47922495831678E-02 
853	 8,47639890068465E-02 
854	 8,41373377372742E-02 
855	 8,42373810464813E-02 
856	 8,46142292775283E-02 
857	 8,44549719305836E-02 
858	 8,43071513893445E-02 
859	 8,43284985472667E-02 
860	 8,46550658786322E-02 
861	 8,47044057227699E-02 
862	 8,42664163929841E-02 
863	 8,41346235840645E-02 
864	 8,42786722835341E-02 
865	 8,45385067672362E-02 
866	 8,51677729853484E-02 
867	 0,085892675479568 
868	 8,58514932465471E-02 
869	 0,085308672070233 
870	 8,46434457218152E-02 
871	 0,085214744599673 
872	 8,62785805086137E-02 
873	 8,67757897618447E-02 
874	 8,68585860167546E-02 
875	 8,66010858533762E-02 
876	 0,086052869982105 
877	 8,62099571823028E-02 
878	 8,72070846974056E-02 
879	 8,70307024594742E-02 
880	 8,66984003423495E-02 
881	 8,74156851890896E-02 
882	 8,77113938362085E-02 
883	 8,76204225471219E-02 
884	 8,80172106853044E-02 
885	 8,83941945458386E-02 
886	 0,088616674569528 
887	 8,89659235793828E-02 
888	 8,91478326538917E-02 
889	 8,89088407661521E-02 
890	 0,088754945989388 
891	 8,87001911424762E-02 
892	 8,84893614113607E-02 
893	 8,87958771808063E-02 
894	 0,089623124754529 
895	 9,00964109673359E-02 
896	 8,99384221622001E-02 
897	 8,90674629404811E-02 
898	 8,85432051151956E-02 
899	 8,85218491241769E-02 
900	 0,088926586735354 
901	 8,92411094301167E-02 
902	 8,93912326748148E-02 
903	 8,98693450891175E-02 
904	 9,01383679912358E-02 
905	 8,99037842299079E-02 
906	 8,95947017410549E-02 
907	 8,95306498587316E-02 
908	 9,00605217698619E-02 
909	 8,99652331702511E-02 
910	 8,95270930271933E-02 
911	 9,07611735259154E-02 
912	 9,13563864766516E-02 
913	 9,03896188036735E-02 
914	 0,089306196085928 
915	 8,91848042504828E-02 
916	 0,090894062874906 
917	 9,11277881333231E-02 
918	 9,02172311552499E-02 
919	 9,07859724337473E-02 
920	 0,091749868704973 
921	 9,24427981179139E-02 
922	 9,14546863559273E-02 
923	 9,04803664673646E-02 
924	 0,090951856844936 
925	 9,18336260215515E-02 
926	 9,23870730793208E-02 
927	 9,16214203975674E-02 
928	 9,10960864472771E-02 
929	 9,10894494625729E-02 
930	 9,07296130292732E-02 
931	 9,05920789337993E-02 
932	 9,09467420566666E-02 
933	 0,091191236202934 
934	 9,13081028658623E-02 
935	 9,13900032172062E-02 
936	 9,24955261272025E-02 
937	 9,38337037533193E-02 
938	 9,24614977344975E-02 
939	 0,091649930772078 
940	 9,24383098817595E-02 
941	 9,31329058912809E-02 
942	 9,31191561985682E-02 
943	 9,21147807222562E-02 
944	 9,22785979265482E-02 
945	 0,093052818194326 
946	 9,26974929233307E-02 
947	 9,26309806060478E-02 
948	 9,28480562848839E-02 
949	 9,17502202329347E-02 
950	 0,09132359070429 
951	 9,23641794362218E-02 
952	 9,19340428201383E-02 
953	 9,12056232084948E-02 
954	 9,18956520790534E-02 
955	 9,27900386609755E-02 
956	 9,31418297090798E-02 
957	 0,091741506499019 
958	 9,02995770135756E-02 
959	 8,97403304153114E-02 
960	 9,09265304563921E-02 
961	 9,23775283799452E-02 
962	 9,28649462823981E-02 
963	 9,25516754349824E-02 
964	 9,20213413823102E-02 
965	 9,21215988168614E-02 
966	 9,24872150393946E-02 
967	 9,27246189245413E-02 
968	 0,091860205693824 
969	 9,12175875562194E-02 
970	 9,14628109662216E-02 
971	 9,28963392628024E-02 
972	 0,093294359991876 
973	 9,10118339381249E-02 
974	 9,08078219090456E-02 
975	 9,22594329425651E-02 
976	 9,31364804251531E-02 
977	 9,27509860223392E-02 
978	 9,14199030051904E-02 
979	 9,09609741587384E-02 
980	 9,18285291049041E-02 
981	 9,39967068613435E-02 
982	 9,59008279987862E-02 
983	 9,66703520787074E-02 
984	 0,095722403363459 
985	 9,42969618952066E-02 
986	 0,093757353138606 
987	 9,61954376075575E-02 
988	 9,68051805537813E-02 
989	 0,095176110436019 
990	 9,52972197294156E-02 
991	 9,59362847121993E-02 
992	 9,63243872088485E-02 
993	 0,095607185549938 
994	 9,57468411214313E-02 
995	 9,83297969422263E-02 
996	 9,59983124392162E-02 
997	 9,20411941924999E-02 
998	 9,53867051256876E-02 
999	 9,85003776480097E-02 
1000	 0,099549974346979 
1001	 0,100206846004019 
1002	 0,100138054933192 
1003	 9,92077893117454E-02 
1004	 9,70399412985649E-02 
1005	 9,60304603585463E-02 
1006	 9,82790257160747E-02 
1007	 0,100613895991715 
1008	 0,10236819520641 
1009	 0,10356493251946 
1010	 0,101384028521117 
1011	 9,66642331014471E-02 
1012	 9,36172950561157E-02 
1013	 9,60342427455708E-02 
1014	 0,103239968633845 
1015	 0,102923229945796 
1016	 9,86698561367492E-02 
1017	 9,49837270968828E-02 
1018	 9,76244086679107E-02 
1019	 0,10143168487487 
1020	 0,097622936785944 
1021	 0,097093872035139 
1022	 0,101121821239544 
1023	 0,106176951875249 
1024	 0,108729106575189 
1025	 0,107523443895326 
1026	 0,10415622129054 
1027	 0,102753584186243 
1028	 0,105110684616907 
1029	 0,102796789738444 
1030	 0,101366139502446 
1031	 0,107392435381189 
1032	 0,107352074658757 
1033	 0,103093692536098 
1034	 0,103549709953302 
1035	 0,107821462621101 
1036	 0,112835326032861 
1037	 0,10798224418233 
1038	 0,105949672132229 
1039	 0,109806122257587 
1040	 0,102528995870412 
1041	 9,60733556693562E-02 
1042	 0,100307634797768 
1043	 0,103612990055339 
1044	 0,107321170798922 
1045	 0,114757656478964 
1046	 0,114353293508829 
1047	 0,110263080443183 
1048	 0,11888239700538 
1049	 0,118689514903539 
1050	 0,109912042195229 
1051	 0,121171095220923 
1052	 0,122550116560916 
1053	 0,105503712788572 
1054	 0,111028681140545 
1055	 0,120694005641855 
1056	 0,116931941147226 
1057	 0,111327703540379 
1058	 0,107340612269926 
1059	 0,108246823873764 
1060	 0,116057466742491 
1061	 0,122637607699589 
1062	 0,109852407393074 
1063	 9,87313819013504E-02 
1064	 9,78449443885106E-02 
1065	 0,112372079226015 
1066	 0,121513851251491 
1067	 0,11550059938074 
1068	 0,098115484255061 
1069	 9,40590883759717E-02 
1070	 0,116853436651872 
1071	 0,114903240955709 
1072	 0,110158531636816 
1073	 0,131252779504933 
1074	 0,134458706309679 
1075	 0,121672405953371 
