Wavelength	SCORFF200087.asd
325	 0,131873991289753 
326	 9,93951407949578E-02 
327	 5,94792026527063E-02 
328	 1,14753123646278E-02 
329	-9,05912689671258E-02 
330	-0,125174179550035 
331	-1,94579516755249E-02 
332	 0,005886221484242 
333	-2,56981499185088E-02 
334	 2,11959351407639E-02 
335	 0,105537954293992 
336	 0,150211784774626 
337	 0,105338116618574 
338	-1,26784696793009E-02 
339	-0,141056849228032 
340	-0,104464323794089 
341	-7,28361914524449E-03 
342	-0,09076511261368 
343	-4,24396820074995E-02 
344	 0,136733220147958 
345	 0,121362872456395 
346	 4,80968230896779E-02 
347	 5,26390376848257E-02 
348	 5,78224836475322E-02 
349	 5,98349235544315E-02 
350	 8,37155194877713E-02 
351	 0,102567527925082 
352	 9,85753719491299E-02 
353	 0,0681401336892 
354	 2,91106099092556E-02 
355	 1,54830313815568E-03 
356	 3,11842558165045E-02 
357	 8,22203024295046E-02 
358	 4,72294426640276E-02 
359	 1,20113994080419E-02 
360	 5,85571474724241E-03 
361	-3,50361909182026E-02 
362	-5,94143178079799E-02 
363	 1,20863512901765E-02 
364	 4,67372196565873E-02 
365	 3,49792679716189E-02 
366	 4,24448126968314E-02 
367	 4,92365628138836E-02 
368	 4,22728175793766E-02 
369	 1,17039341895204E-02 
370	-1,56229088456957E-02 
371	 1,68214880488979E-02 
372	 2,19604080230726E-02 
373	-6,98138560255085E-03 
374	 1,16643458157732E-02 
375	 0,030584258574346 
376	 0,016971536684769 
377	 8,8021565194902E-03 
378	 1,25120369584222E-02 
379	 2,96169371281173E-02 
380	 3,55373748568039E-02 
381	 2,57379011370894E-02 
382	 2,90602639708853E-02 
383	 2,84763215228496E-02 
384	 9,02351041691041E-03 
385	 8,65745471495154E-03 
386	 2,45043016099778E-02 
387	 3,18350801597395E-02 
388	 3,59344304399264E-02 
389	 3,56814091557891E-02 
390	 0,016435222130163 
391	 2,01421196201826E-03 
392	 2,26213074170946E-02 
393	 2,16011471107456E-02 
394	 1,32689911718128E-03 
395	 7,68638648762213E-03 
396	 1,48797878211443E-02 
397	 1,10045908550534E-02 
398	 0,005530381688967 
399	 4,57991678121929E-03 
400	 1,55726671799238E-02 
401	 1,95956695855108E-02 
402	 1,26772399087879E-02 
403	-2,62234978402547E-03 
404	-5,36923440512372E-04 
405	 3,03370347032201E-02 
406	 2,87436653882182E-02 
407	 7,88403700205641E-03 
408	 1,06446765940153E-02 
409	 0,018874152741835 
410	 2,60533811943687E-02 
411	 2,78302749906161E-02 
412	 2,39513775040985E-02 
413	 1,51226047022827E-02 
414	 1,36064970960188E-02 
415	 1,81186272506068E-02 
416	 1,95938072042444E-02 
417	 2,02328582894991E-02 
418	 2,03315765067113E-02 
419	 1,66724675508965E-02 
420	 1,57928502605601E-02 
421	 2,61817078297923E-02 
422	 2,72475696504839E-02 
423	 2,01634019873236E-02 
424	 2,51376981275176E-02 
425	 0,028991419476377 
426	 2,45106372398121E-02 
427	 0,020899244125252 
428	 1,92350656522147E-02 
429	 1,87707985386613E-02 
430	 0,020718893462409 
431	 2,37406401957694E-02 
432	 2,08478360532663E-02 
433	 1,88612304138725E-02 
434	 0,023579022671394 
435	 2,65144936040371E-02 
436	 0,026245271422761 
437	 2,33317894051709E-02 
438	 1,98520145502896E-02 
439	 1,74809044825148E-02 
440	 1,89955489535111E-02 
441	 2,17238009637915E-02 
442	 2,20604518764284E-02 
443	 2,16867124450063E-02 
444	 2,15199895758434E-02 
445	 2,34897759698291E-02 
446	 2,47119398254837E-02 
447	 2,36397703247372E-02 
448	 2,33942126107541E-02 
449	 2,40693084955653E-02 
450	 2,50913093696258E-02 
451	 2,52664340628227E-02 
452	 2,42450205666737E-02 
453	 2,25400789596499E-02 
454	 2,10587652359192E-02 
455	 2,06091424232084E-02 
456	 2,11401516148877E-02 
457	 0,021906857510299 
458	 2,08539273550081E-02 
459	 2,08760553988286E-02 
460	 2,27615389427009E-02 
461	 2,34142648041237E-02 
462	 2,27746599044788E-02 
463	 0,021217962475573 
464	 1,89019254423398E-02 
465	 1,71419868107292E-02 
466	 2,00815707898464E-02 
467	 0,022269098758798 
468	 2,05988197137781E-02 
469	 2,29003679258315E-02 
470	 2,61998961794702E-02 
471	 2,23478528404687E-02 
472	 1,89964773284418E-02 
473	 1,86768982417996E-02 
474	 2,02539270593931E-02 
475	 2,20486410899721E-02 
476	 2,24696028100513E-02 
477	 2,20885690812133E-02 
478	 2,12301145251945E-02 
479	 2,05395697758479E-02 
480	 1,92579793531499E-02 
481	 1,75384969644253E-02 
482	 1,86876713200566E-02 
483	 2,08123802403043E-02 
484	 2,07259670647688E-02 
485	 1,99930775485786E-02 
486	 1,92403028502082E-02 
487	 0,019037775341967 
488	 1,97255035340991E-02 
489	 2,13035193161432E-02 
490	 2,10478521430771E-02 
491	 1,99110238522912E-02 
492	 2,13254658923319E-02 
493	 2,15917454361787E-02 
494	 1,98366260570384E-02 
495	 1,83743825714962E-02 
496	 1,84018450664986E-02 
497	 2,09608574994425E-02 
498	 2,32547763042855E-02 
499	 2,39666603899989E-02 
500	 2,14516345041109E-02 
501	 1,90377954394923E-02 
502	 1,85978805108199E-02 
503	 1,78634221329884E-02 
504	 1,78886939490561E-02 
505	 2,11477809104445E-02 
506	 2,30270270673769E-02 
507	 2,25062066541594E-02 
508	 2,20465334097876E-02 
509	 2,15428061684067E-02 
510	 2,08463412596887E-02 
511	 2,04244258207163E-02 
512	 2,05074118428568E-02 
513	 0,021570241479695 
514	 2,20320344403235E-02 
515	 2,14594640969684E-02 
516	 2,22100409429684E-02 
517	 2,29116753917323E-02 
518	 2,13279608335279E-02 
519	 2,06808706794296E-02 
520	 2,14961293280808E-02 
521	 2,25309612366491E-02 
522	 2,29273371575202E-02 
523	 2,21991515712559E-02 
524	 2,20201776326332E-02 
525	 2,24350615559944E-02 
526	 2,30131960131194E-02 
527	 2,29163502615008E-02 
528	 2,21328696868252E-02 
529	 2,25729638219294E-02 
530	 2,30091435554375E-02 
531	 2,19171959900295E-02 
532	 2,08070501091324E-02 
533	 2,02970951561183E-02 
534	 2,10960530671174E-02 
535	 2,19735289706508E-02 
536	 2,21724856295347E-02 
537	 2,21209673304815E-02 
538	 2,18985563893882E-02 
539	 2,15154577634779E-02 
540	 0,021269742868523 
541	 2,13863741023873E-02 
542	 2,23996943547821E-02 
543	 2,31066259121112E-02 
544	 2,23870010645826E-02 
545	 2,19211550484905E-02 
546	 2,19856105002051E-02 
547	 2,23707721670298E-02 
548	 2,23647762944132E-02 
549	 2,17343617778727E-02 
550	 0,021563427686056 
551	 2,19381874867881E-02 
552	 2,28143177710539E-02 
553	 2,33178093960571E-02 
554	 0,023152991632445 
555	 0,022370953347186 
556	 2,17303515080704E-02 
557	 2,18502087830794E-02 
558	 2,22577397191508E-02 
559	 2,26835736499991E-02 
560	 2,28061203857354E-02 
561	 2,24515159307039E-02 
562	 2,16648027765217E-02 
563	 2,12205823463829E-02 
564	 2,09367874767894E-02 
565	 0,02045723896205 
566	 2,07422110222917E-02 
567	 2,16713871353011E-02 
568	 2,20336155771228E-02 
569	 2,20639226113067E-02 
570	 2,19687618766698E-02 
571	 2,21296615082303E-02 
572	 2,24041330892701E-02 
573	 2,22898380619483E-02 
574	 2,24082927318983E-02 
575	 2,28876089228469E-02 
576	 2,32209742935482E-02 
577	 2,32986340900893E-02 
578	 2,30553950757532E-02 
579	 2,28346212782598E-02 
580	 2,29665084801773E-02 
581	 2,43028764066157E-02 
582	 2,49079173277166E-02 
583	 2,38897785165786E-02 
584	 2,37984121959137E-02 
585	 2,43616782620256E-02 
586	 0,024528223305838 
587	 2,41469952396405E-02 
588	 2,35298172038772E-02 
589	 2,44155729934156E-02 
590	 2,52999583324172E-02 
591	 2,48053988497644E-02 
592	 2,52582477225316E-02 
593	 2,62963320424588E-02 
594	 2,56714509663235E-02 
595	 2,49979845784562E-02 
596	 2,49844930342165E-02 
597	 2,49424530614512E-02 
598	 2,50053989256529E-02 
599	 2,54802894762979E-02 
600	 2,57310357429861E-02 
601	 2,55584305486942E-02 
602	 2,48952684162267E-02 
603	 2,46674281947707E-02 
604	 2,54968845880551E-02 
605	 2,57914445845691E-02 
606	 2,53621588074886E-02 
607	 2,43723579122391E-02 
608	 2,37858150503639E-02 
609	 2,39325522767058E-02 
610	 2,40208340177761E-02 
611	 2,40223391326918E-02 
612	 2,39938929157984E-02 
613	 2,35635960547342E-02 
614	 2,30092184998658E-02 
615	 2,35132826721367E-02 
616	 2,41806514170009E-02 
617	 2,43402852893886E-02 
618	 2,34814083376537E-02 
619	 0,022524086389777 
620	 2,34347685809255E-02 
621	 2,42074311505945E-02 
622	 2,42665282889187E-02 
623	 0,024360577988977 
624	 0,024337858657431 
625	 2,40152339371332E-02 
626	 2,34910085968006E-02 
627	 0,023162646552664 
628	 2,41512286892671E-02 
629	 2,47766154504085E-02 
630	 2,42706838667149E-02 
631	 2,40264874280432E-02 
632	 2,40451366589055E-02 
633	 2,40355361172468E-02 
634	 2,41820242108982E-02 
635	 2,45098261086232E-02 
636	 2,49530772098533E-02 
637	 2,53282644927233E-02 
638	 2,54840933677487E-02 
639	 2,55305741570585E-02 
640	 2,55547309187123E-02 
641	 2,57105635290969E-02 
642	 2,58657456712267E-02 
643	 0,025953098086234 
644	 2,58526397161873E-02 
645	 2,59492888459426E-02 
646	 0,026748474802437 
647	 2,68140180120919E-02 
648	 0,02617375620053 
649	 2,62699720282609E-02 
650	 2,65303554090357E-02 
651	 2,65225064863747E-02 
652	 2,59566125269173E-02 
653	 2,52672020135122E-02 
654	 0,025431613458068 
655	 2,55783810800956E-02 
656	 0,025418046809267 
657	 2,51231727341339E-02 
658	 2,46640509396488E-02 
659	 2,40179731972867E-02 
660	 2,34686082962968E-02 
661	 2,31035197003873E-02 
662	 2,29315905915133E-02 
663	 2,28755893984081E-02 
664	 2,28730517913657E-02 
665	 2,28599355372351E-02 
666	 2,28074181203813E-02 
667	 2,26998769727897E-02 
668	 2,23877794717355E-02 
669	 2,20285021517001E-02 
670	 2,24010393569403E-02 
671	 2,27232364533656E-02 
672	 2,23985343471299E-02 
673	 0,02233011026651 
674	 2,24364412996757E-02 
675	 2,21223802572852E-02 
676	 2,18471537500494E-02 
677	 2,18248519073684E-02 
678	 0,022189348046181 
679	 2,27068991774093E-02 
680	 2,30882585706894E-02 
681	 2,31094783006769E-02 
682	 2,29015001368487E-02 
683	 2,30592173763723E-02 
684	 2,32960854686648E-02 
685	 2,34385828879964E-02 
686	 0,023475431042281 
687	 2,36141196211324E-02 
688	 2,42451295064671E-02 
689	 2,46609790719431E-02 
690	 2,47820029303944E-02 
691	 2,51716768793518E-02 
692	 2,61477160503189E-02 
693	 2,79072544398343E-02 
694	 2,93756551803937E-02 
695	 3,06222722192792E-02 
696	 3,23617415210831E-02 
697	 3,44596037568946E-02 
698	 0,036937813752741 
699	 0,040012519439587 
700	 4,35438806915196E-02 
701	 4,73338259566537E-02 
702	 5,14185166229291E-02 
703	 0,055818090372137 
704	 6,06755457969288E-02 
705	 6,56087643958896E-02 
706	 7,03738036751705E-02 
707	 7,51903722613056E-02 
708	 0,080156140014485 
709	 8,53881967785107E-02 
710	 9,05337530916446E-02 
711	 9,55063238074857E-02 
712	 0,100484557606982 
713	 0,105431794309991 
714	 0,110277678414481 
715	 0,114578650419665 
716	 0,118476050683883 
717	 0,122589835514049 
718	 0,126476305140723 
719	 0,130013645269591 
720	 0,133614564381551 
721	 0,137062410127691 
722	 0,140050515296576 
723	 0,142877177366953 
724	 0,14554056791885 
725	 0,147793917831782 
726	 0,149758326119678 
727	 0,151543071435346 
728	 0,153294477603594 
729	 0,155104628628201 
730	 0,15710505129115 
731	 0,158873180157399 
732	 0,160244250710639 
733	 0,161172926034325 
734	 0,162161810794418 
735	 0,163586890216109 
736	 0,164339799716318 
737	 0,164808061005642 
738	 0,16656726154888 
739	 0,167739251794974 
740	 0,167845144081347 
741	 0,168558407337371 
742	 0,169437882838394 
743	 0,169829937335115 
744	 0,170350525260863 
745	 0,171038597703571 
746	 0,171627239018308 
747	 0,171979670992563 
748	 0,172081445487776 
749	 0,172388297989714 
750	 0,172933887945811 
751	 0,173682832049799 
752	 0,174212626963729 
753	 0,174509758639398 
754	 0,175098233475898 
755	 0,175511608051006 
756	 0,175474211566429 
757	 0,175790408297682 
758	 0,176389666471636 
759	 0,176886380615657 
760	 0,177201038938989 
761	 0,177341760828199 
762	 0,177527806712851 
763	 0,177912453916919 
764	 0,178593681882806 
765	 0,179039494322807 
766	 0,179206371323715 
767	 0,179246920086205 
768	 0,179436937912652 
769	 0,179843498967565 
770	 0,180052620672739 
771	 0,180169547693493 
772	 0,18036084692706 
773	 0,180667428141419 
774	 0,18104842000411 
775	 0,181375410695318 
776	 0,18155403662876 
777	 0,181534365119527 
778	 0,181322581563394 
779	 0,18130074310664 
780	 0,182010543252245 
781	 0,182332188243681 
782	 0,182172636853636 
783	 0,182374053282345 
784	 0,18265461825285 
785	 0,182816490955611 
786	 0,182808581091999 
787	 0,182821478446449 
788	 0,183213540156181 
789	 0,183508866519817 
790	 0,183606043600505 
791	 0,183771973340508 
792	 0,18384888712366 
793	 0,18374399082603 
794	 0,183870518497479 
795	 0,184225458131166 
796	 0,184693663923119 
797	 0,184800360277344 
798	 0,184553311239968 
799	 0,184886429241821 
800	 0,185335384010662 
801	 0,185414644111803 
802	 0,185157391172597 
803	 0,184885448672982 
804	 0,185382326198153 
805	 0,185995256364779 
806	 0,186390070544632 
807	 0,186224285001751 
808	 0,186042983035391 
809	 0,186431970868613 
810	 0,186682001965772 
811	 0,186800310295016 
812	 0,187236268953573 
813	 0,187642228009732 
814	 0,187873811892462 
815	 0,188019944008508 
816	 0,188202633308527 
817	 0,188546897985039 
818	 0,188709502122068 
819	 0,188659412467642 
820	 0,188504378306283 
821	 0,188567615999856 
822	 0,188990263548711 
823	 0,189483701996159 
824	 0,189953790916384 
825	 0,190326798458057 
826	 0,190806203359985 
827	 0,19130687004333 
828	 0,19145340419467 
829	 0,191352371217876 
830	 0,19114148779402 
831	 0,191296753149991 
832	 0,191592134170714 
833	 0,191643570950576 
834	 0,19217785792596 
835	 0,192931233486976 
836	 0,192471069258775 
837	 0,192079029599743 
838	 0,192416398842573 
839	 0,192758628075828 
840	 0,1930121615235 
841	 0,193161499924899 
842	 0,193206069595551 
843	 0,193195270661994 
844	 0,193287404125703 
845	 0,193309709717359 
846	 0,193208653500673 
847	 0,193286583643199 
848	 0,19350789986919 
849	 0,193770584865678 
850	 0,193877323724803 
851	 0,193818737614514 
852	 0,193776274769257 
853	 0,19368520306587 
854	 0,193525567813989 
855	 0,193348017349792 
856	 0,193284825174527 
857	 0,193497767261932 
858	 0,193275516845409 
859	 0,192754670806676 
860	 0,192948447591314 
861	 0,193221866443286 
862	 0,193264586244965 
863	 0,193296349080503 
864	 0,193555399075002 
865	 0,194302141633567 
866	 0,194601862898197 
867	 0,194552801952039 
868	 0,195221297442283 
869	 0,195750270040799 
870	 0,195769478109004 
871	 0,195692616228685 
872	 0,195642278157174 
873	 0,195735886618068 
874	 0,196731886906244 
875	 0,198112225504443 
876	 0,197964258032653 
877	 0,197699134589333 
878	 0,197898606619954 
879	 0,198161425310406 
880	 0,198558395566609 
881	 0,199155634562008 
882	 0,199388546515606 
883	 0,199323653193472 
884	 0,199448582965505 
885	 0,199578692025799 
886	 0,199716626824426 
887	 0,200143720023888 
888	 0,200504205572085 
889	 0,200490064700837 
890	 0,200801289741782 
891	 0,201103567398826 
892	 0,200311591295179 
893	 0,200193002984375 
894	 0,201144282551911 
895	 0,202287004243151 
896	 0,202368414269856 
897	 0,200699245673694 
898	 0,200231912817301 
899	 0,200790882982693 
900	 0,2011876198075 
901	 0,201304256381139 
902	 0,201102755207233 
903	 0,20076486181962 
904	 0,200695599619398 
905	 0,201059299679469 
906	 0,201088631922821 
907	 0,200769314234799 
908	 0,200234927443949 
909	 0,200315701447877 
910	 0,201049808366862 
911	 0,202057780885071 
912	 0,201811153944632 
913	 0,200001963377817 
914	 0,199445500682562 
915	 0,200137966445829 
916	 0,201644497203665 
917	 0,201793298654236 
918	 0,201012969663849 
919	 0,201723156111729 
920	 0,201997204365474 
921	 0,20140313841448 
922	 0,201120514890724 
923	 0,20092607016946 
924	 0,200694993307177 
925	 0,201476314970857 
926	 0,202609506481301 
927	 0,202726939457972 
928	 0,201442096325457 
929	 0,199481687757124 
930	 0,199829365416963 
931	 0,200677427348986 
932	 0,200889687190565 
933	 0,20071562287244 
934	 0,200446281008471 
935	 0,200442617929827 
936	 0,200704946548481 
937	 0,200823790639474 
938	 0,199701211986439 
939	 0,198307711752496 
940	 0,197248051707753 
941	 0,197233731165793 
942	 0,197604777098591 
943	 0,19764045059252 
944	 0,196686025048207 
945	 0,195419475717792 
946	 0,195322904420519 
947	 0,194922617716327 
948	 0,193868583035367 
949	 0,192479683305224 
950	 0,19124751575144 
951	 0,190386501073405 
952	 0,189009468382577 
953	 0,187854675288302 
954	 0,187839026914106 
955	 0,187628290644557 
956	 0,186797351393314 
957	 0,18499639439335 
958	 0,183529052993723 
959	 0,183007797690609 
960	 0,183730533387663 
961	 0,183991650778603 
962	 0,182755330197888 
963	 0,183036789569328 
964	 0,183801173884854 
965	 0,182885798030587 
966	 0,181078049011165 
967	 0,179268587636271 
968	 0,179469811579851 
969	 0,179725769776788 
970	 0,179559211747356 
971	 0,18163637919601 
972	 0,182194174131468 
973	 0,178383284111325 
974	 0,178762898239948 
975	 0,182000393955207 
976	 0,18313651870689 
977	 0,181844765074945 
978	 0,179247162799449 
979	 0,179746959781887 
980	 0,18132306011802 
981	 0,182793189858552 
982	 0,183704314926844 
983	 0,183528061178319 
984	 0,182032943458713 
985	 0,181588167818442 
986	 0,182829761912415 
987	 0,186118815054446 
988	 0,186332564415018 
989	 0,183504006945884 
990	 0,183756109850863 
991	 0,184110383644026 
992	 0,183380084180605 
993	 0,184217579356476 
994	 0,185115998549777 
995	 0,18448037095989 
996	 0,184923370674449 
997	 0,185867065578376 
998	 0,185195238752671 
999	 0,186114809095762 
1000	 0,188864307779984 
1001	 0,191166120903517 
1002	 0,191563326009039 
1003	 0,190033649786651 
1004	 0,191223246340613 
1005	 0,192858867060942 
1006	 0,19250551805783 
1007	 0,192878661683827 
1008	 0,193251316275582 
1009	 0,191646245169961 
1010	 0,189018416771526 
1011	 0,186619092016666 
1012	 0,187057451979452 
1013	 0,189787147703797 
1014	 0,193504053308917 
1015	 0,193656977465075 
1016	 0,192486608111276 
1017	 0,192327092333641 
1018	 0,193990199794594 
1019	 0,196043052357315 
1020	 0,196173374272649 
1021	 0,195085687052439 
1022	 0,194426057645406 
1023	 0,19851861801929 
1024	 0,199822919775173 
1025	 0,196949077006367 
1026	 0,196466163422527 
1027	 0,197036525730458 
1028	 0,197715204841886 
1029	 0,198699045380759 
1030	 0,200416800166874 
1031	 0,203090422340271 
1032	 0,202042524651554 
1033	 0,200596557552617 
1034	 0,20719834194396 
1035	 0,211283050095496 
1036	 0,209867981314727 
1037	 0,203433337830154 
1038	 0,201365181542407 
1039	 0,205801316269227 
1040	 0,20213758371654 
1041	 0,198889457139046 
1042	 0,202788154348337 
1043	 0,20262297805337 
1044	 0,202632769601209 
1045	 0,209940215059646 
1046	 0,209042507084427 
1047	 0,204117710086627 
1048	 0,21363892045718 
1049	 0,215226452951842 
1050	 0,207420881735075 
1051	 0,212145080291808 
1052	 0,214447376163196 
1053	 0,208634265163272 
1054	 0,205995562249227 
1055	 0,210696089062278 
1056	 0,222571331130965 
1057	 0,21828611137277 
1058	 0,205791320241196 
1059	 0,201824908270551 
1060	 0,203326885190023 
1061	 0,206417142367279 
1062	 0,203638893075817 
1063	 0,198383027724916 
1064	 0,195989734589067 
1065	 0,212610583627289 
1066	 0,22042775224109 
1067	 0,208367945514699 
1068	 0,189145618944196 
1069	 0,184680241998533 
1070	 0,206662986002061 
1071	 0,209130536875427 
1072	 0,206650295204447 
1073	 0,219550165442383 
1074	 0,214728706954524 
1075	 0,198496783780223 
