Wavelength	SCORFF200207.asd
325	 0,277053116758099 
326	 0,133516951306293 
327	 2,58390837179226E-02 
328	 2,57394682227564E-02 
329	 0,141614295155041 
330	 0,217192409322555 
331	 0,153525073190345 
332	 4,80739182552157E-02 
333	-1,72731828729538E-02 
334	 1,20844025437911E-02 
335	 0,102951827840407 
336	 0,168052664295834 
337	 0,139049507744986 
338	 4,13643242404253E-02 
339	-6,44299193087235E-02 
340	 4,79450107334272E-03 
341	 0,120895225287497 
342	 6,04458685386439E-03 
343	 7,44619813227803E-03 
344	 0,151865455991676 
345	 0,120503270348837 
346	 3,53722780182983E-02 
347	 2,41847892185843E-02 
348	 4,54053277918686E-02 
349	 7,76778940108058E-02 
350	 0,101127945501247 
351	 9,87033735755388E-02 
352	 7,09717280402064E-02 
353	 6,55506095335539E-02 
354	 6,20225816351443E-02 
355	 3,39881936986022E-02 
356	 3,70402871656763E-02 
357	 7,04163395077458E-02 
358	 0,108501414385244 
359	 9,81690342141041E-02 
360	 2,41983488502826E-02 
361	-2,68901484666999E-02 
362	-3,07967762126807E-02 
363	 2,38111136260751E-02 
364	 6,70582479419621E-02 
365	 8,41436366817635E-02 
366	 7,49377642822857E-02 
367	 6,42080042448161E-02 
368	 6,51093063431666E-02 
369	 4,62661297702938E-02 
370	 2,40224055476467E-02 
371	 4,03961613367296E-02 
372	 2,35940070310181E-02 
373	-2,20668610845836E-02 
374	 1,13506405879678E-02 
375	 4,58312393228266E-02 
376	 2,73969740980834E-02 
377	 1,44201962461079E-02 
378	 1,40403093578312E-02 
379	 1,93620747494297E-02 
380	 2,63321377081665E-02 
381	 0,035097976104861 
382	 5,95990842385979E-02 
383	 6,60344078443377E-02 
384	 2,89300333555502E-02 
385	 1,83367523832247E-02 
386	 3,61034139807355E-02 
387	 5,41072936662984E-02 
388	 5,47773454683559E-02 
389	 3,57231051281521E-02 
390	 2,94456713120899E-02 
391	 3,17538483641499E-02 
392	 3,48154692652886E-02 
393	 2,39081936607315E-02 
394	 7,72071473334785E-03 
395	 2,59072316492942E-02 
396	 3,30721330424407E-02 
397	 1,19142465906394E-02 
398	 9,02460858115862E-03 
399	 1,77084332225203E-02 
400	 2,05739472694705E-02 
401	 1,79100898302319E-02 
402	 1,13109762267137E-02 
403	 5,41215354235014E-03 
404	 9,95180895302097E-03 
405	 2,79338548176916E-02 
406	 2,57817727710185E-02 
407	 1,38031462112871E-02 
408	 2,20040260298864E-02 
409	 0,031372842904151 
410	 3,48144026953647E-02 
411	 2,78556267575672E-02 
412	 1,80697538814084E-02 
413	 1,29213906555613E-02 
414	 1,92756816638798E-02 
415	 2,95564138335622E-02 
416	 2,24015388911297E-02 
417	 1,67017288451026E-02 
418	 0,018539781477008 
419	 1,30653417931269E-02 
420	 7,40633747289143E-03 
421	 1,20785560820586E-02 
422	 1,52555662187319E-02 
423	 1,58674518165762E-02 
424	 2,05174850766257E-02 
425	 2,35896577584514E-02 
426	 2,17678941129084E-02 
427	 1,66144419965107E-02 
428	 1,18914878956188E-02 
429	 1,31634682700141E-02 
430	 1,76972896922376E-02 
431	 2,25652215324413E-02 
432	 2,00024734337705E-02 
433	 1,55130183455154E-02 
434	 1,43622367762684E-02 
435	 1,67910163126394E-02 
436	 1,99792210519729E-02 
437	 1,67336076733064E-02 
438	 1,35445748135806E-02 
439	 1,32989806118988E-02 
440	 1,59931747064808E-02 
441	 1,84974658320672E-02 
442	 1,69987329727614E-02 
443	 1,53224211281083E-02 
444	 1,48663279509669E-02 
445	 1,71220481802867E-02 
446	 1,81195622918681E-02 
447	 1,58714763023376E-02 
448	 1,61477866262129E-02 
449	 1,78868216034463E-02 
450	 1,75636385249976E-02 
451	 1,78662820338991E-02 
452	 1,90774323695741E-02 
453	 1,89340520039237E-02 
454	 1,82374225887482E-02 
455	 1,77193326059895E-02 
456	 1,50020106805436E-02 
457	 1,19820457842968E-02 
458	 1,47276548829412E-02 
459	 1,72850686862319E-02 
460	 1,73362724633786E-02 
461	 1,77096999334259E-02 
462	 1,83589545810234E-02 
463	 1,89353771080663E-02 
464	 1,67634042236551E-02 
465	 1,30582357206263E-02 
466	 0,014008785756446 
467	 0,016645011923828 
468	 1,86789239454986E-02 
469	 1,92868641112151E-02 
470	 0,018894297577369 
471	 1,87847805944104E-02 
472	 0,017498686951311 
473	 1,53548381282919E-02 
474	 1,54823083705457E-02 
475	 1,68055561364608E-02 
476	 1,80374837267569E-02 
477	 1,82889286805081E-02 
478	 1,78636880437767E-02 
479	 1,86286946396216E-02 
480	 1,75029784488947E-02 
481	 1,38253900903127E-02 
482	 1,31621988971875E-02 
483	 1,49078195330259E-02 
484	 1,72903498033108E-02 
485	 1,89181494375901E-02 
486	 0,019075039111988 
487	 1,70809742619302E-02 
488	 1,60656459269972E-02 
489	 1,80649961557857E-02 
490	 1,79200945094015E-02 
491	 1,61213035053839E-02 
492	 1,56604917330166E-02 
493	 1,55706409923886E-02 
494	 1,55219361651136E-02 
495	 1,51041012824165E-02 
496	 0,01481617779354 
497	 1,52390527204312E-02 
498	 1,53277094370298E-02 
499	 1,50198709055582E-02 
500	 1,48452211429893E-02 
501	 1,50150381286514E-02 
502	 1,54971954636002E-02 
503	 1,48162422280476E-02 
504	 1,40842127158191E-02 
505	 1,55238065067951E-02 
506	 1,73994257628399E-02 
507	 1,84868470050119E-02 
508	 1,61082153829228E-02 
509	 1,35479648070294E-02 
510	 1,38195228957963E-02 
511	 1,52121337833775E-02 
512	 1,66289364090281E-02 
513	 1,62336935872685E-02 
514	 1,55624976047624E-02 
515	 1,53289565215848E-02 
516	 0,015448773325137 
517	 1,55660601422673E-02 
518	 0,015191166680339 
519	 1,48270495120292E-02 
520	 1,48043533491445E-02 
521	 1,58903301941737E-02 
522	 1,65277171257446E-02 
523	 1,57266468640042E-02 
524	 1,55519887131765E-02 
525	 1,62316238130689E-02 
526	 1,78525424233529E-02 
527	 1,75940148582891E-02 
528	 1,52380018334664E-02 
529	 1,55189403447215E-02 
530	 1,68332326084737E-02 
531	 1,69494333930588E-02 
532	 1,63384576814167E-02 
533	 1,55525673777619E-02 
534	 1,61042266661108E-02 
535	 1,64779470640748E-02 
536	 1,59215096882519E-02 
537	 0,016163639025284 
538	 1,67542799043912E-02 
539	 1,64524550508678E-02 
540	 1,61420370239923E-02 
541	 1,61380512884206E-02 
542	 1,66735057446591E-02 
543	 1,67934089616649E-02 
544	 1,56418441324467E-02 
545	 1,50774895110883E-02 
546	 1,53563606780653E-02 
547	 1,60820028661824E-02 
548	 1,65386726247073E-02 
549	 1,64062718567675E-02 
550	 1,64725001231327E-02 
551	 1,65759484997349E-02 
552	 1,63129588189743E-02 
553	 1,62088320108083E-02 
554	 1,63495201625718E-02 
555	 1,64340124520584E-02 
556	 1,64472377533055E-02 
557	 1,64070348876809E-02 
558	 1,67087974241417E-02 
559	 1,70594614776914E-02 
560	 1,65382904030801E-02 
561	 1,60741068253407E-02 
562	 1,59915413696875E-02 
563	 1,57848740899937E-02 
564	 1,53872271955523E-02 
565	 1,47580754354136E-02 
566	 1,50896121278885E-02 
567	 1,62352840812148E-02 
568	 1,65974598399605E-02 
569	 1,66628792779053E-02 
570	 1,67476785542087E-02 
571	 1,64623755524952E-02 
572	 1,60781793574317E-02 
573	 1,62345469204906E-02 
574	 1,66222191584868E-02 
575	 0,01707925243274 
576	 1,74201345726399E-02 
577	 1,74393236629903E-02 
578	 1,69601646744494E-02 
579	 1,71161827494953E-02 
580	 1,78877728932558E-02 
581	 0,018455175792226 
582	 1,83287970623778E-02 
583	 1,74010857961785E-02 
584	 1,72667361783815E-02 
585	 1,78764291095207E-02 
586	 1,88391716325055E-02 
587	 1,87152581909978E-02 
588	 1,75835383699424E-02 
589	 1,80312829309274E-02 
590	 1,89647428970714E-02 
591	 1,92373654457203E-02 
592	 1,88603636167795E-02 
593	 1,82858018096178E-02 
594	 1,88355416335864E-02 
595	 1,90644969534069E-02 
596	 1,84614666815857E-02 
597	 1,84101133941961E-02 
598	 1,88434225094519E-02 
599	 1,94683834453337E-02 
600	 1,93481909435044E-02 
601	 1,84752659296701E-02 
602	 1,79212067912817E-02 
603	 0,017858038243338 
604	 1,83307311668522E-02 
605	 1,83934765717637E-02 
606	 1,80927492563756E-02 
607	 1,80362029873804E-02 
608	 1,76732006640217E-02 
609	 1,70532783619433E-02 
610	 1,75772114662913E-02 
611	 0,018382765704444 
612	 1,82843612521481E-02 
613	 1,73674537822865E-02 
614	 1,62402395188641E-02 
615	 1,68023605334996E-02 
616	 1,75944054245279E-02 
617	 1,76156833725543E-02 
618	 1,68245806868315E-02 
619	 1,61889877511999E-02 
620	 1,77410457156316E-02 
621	 1,84269006122481E-02 
622	 1,75648101875942E-02 
623	 1,71987774186936E-02 
624	 1,72271068316332E-02 
625	 1,74081465886719E-02 
626	 1,74246149457269E-02 
627	 0,017327713139844 
628	 1,75238708708781E-02 
629	 1,77554278508206E-02 
630	 1,78541273351723E-02 
631	 1,76112432842742E-02 
632	 1,73693318369023E-02 
633	 1,77178065251759E-02 
634	 1,79505947944801E-02 
635	 1,79627940574731E-02 
636	 1,82578148081036E-02 
637	 1,85235548970349E-02 
638	 1,85048985762777E-02 
639	 1,85740612460302E-02 
640	 0,01879175430474 
641	 1,91873933997999E-02 
642	 1,92837206845705E-02 
643	 1,90147510897283E-02 
644	 1,93262135250792E-02 
645	 1,97761938214923E-02 
646	 1,96829453849833E-02 
647	 1,97032561849969E-02 
648	 1,98870228988702E-02 
649	 1,98019596632942E-02 
650	 1,98480792648416E-02 
651	 2,01392286805386E-02 
652	 0,019007550575138 
653	 1,75768273780566E-02 
654	 1,86877560109671E-02 
655	 1,92853503186909E-02 
656	 1,85917025192056E-02 
657	 1,82446755380428E-02 
658	 1,79585285482226E-02 
659	 1,73609842474062E-02 
660	 1,68725997461561E-02 
661	 1,67185831391234E-02 
662	 1,74013945343117E-02 
663	 1,74545597263702E-02 
664	 1,63497655057537E-02 
665	 1,61979923903447E-02 
666	 1,65698610801053E-02 
667	 1,63980327507142E-02 
668	 1,63289296353964E-02 
669	 1,64465655983031E-02 
670	 0,016488016807098 
671	 1,62411787684237E-02 
672	 1,56237940839547E-02 
673	 1,56520412765253E-02 
674	 0,016217409389695 
675	 0,016736659954918 
676	 0,016634023918924 
677	 1,59259801783708E-02 
678	 1,61695789785477E-02 
679	 1,68825989374398E-02 
680	 1,73338524919915E-02 
681	 1,75854360444435E-02 
682	 1,76261340370475E-02 
683	 1,74657862833213E-02 
684	 1,72514458771313E-02 
685	 1,71172833583374E-02 
686	 1,72666129936859E-02 
687	 1,75866172089084E-02 
688	 1,77987565020192E-02 
689	 1,83768327751783E-02 
690	 1,93068769767678E-02 
691	 1,99139889624541E-02 
692	 2,04290623042511E-02 
693	 2,11090637886554E-02 
694	 2,22227950103534E-02 
695	 2,36589588913308E-02 
696	 2,48834455071477E-02 
697	 2,67105198222359E-02 
698	 0,029352965074369 
699	 3,18228144341664E-02 
700	 3,44666746814475E-02 
701	 3,78488773576708E-02 
702	 4,11389169933814E-02 
703	 0,044298577566531 
704	 4,79533843059094E-02 
705	 5,17813977841247E-02 
706	 5,56187826998452E-02 
707	 5,99387170177629E-02 
708	 6,44903245806055E-02 
709	 6,87507137473809E-02 
710	 7,24451250144613E-02 
711	 7,56863550305691E-02 
712	 7,94345533719873E-02 
713	 8,32132247065178E-02 
714	 8,65614470819766E-02 
715	 9,00488799127758E-02 
716	 9,35241879424035E-02 
717	 9,62971196567898E-02 
718	 9,91784592505772E-02 
719	 0,102347091489912 
720	 0,104654349273979 
721	 0,106694589485568 
722	 0,109355765230769 
723	 0,111583676374203 
724	 0,113253589188992 
725	 0,114843193100491 
726	 0,11632305521745 
727	 0,117688942371615 
728	 0,118922548999077 
729	 0,120184154878887 
730	 0,121780611128348 
731	 0,123076787503384 
732	 0,123963466534558 
733	 0,124947540169726 
734	 0,12584494072231 
735	 0,12649002698233 
736	 0,127033133079588 
737	 0,127638457296476 
738	 0,128692808928437 
739	 0,129417658446913 
740	 0,129602819289666 
741	 0,129920387480618 
742	 0,130422522600695 
743	 0,131094480324731 
744	 0,131663676866791 
745	 0,132099225191173 
746	 0,132564480928593 
747	 0,132915215013417 
748	 0,133108611311752 
749	 0,133373499681349 
750	 0,133762101810091 
751	 0,134317297409615 
752	 0,134587932783816 
753	 0,134628288930147 
754	 0,13518925280401 
755	 0,135675396391731 
756	 0,135686016272878 
757	 0,135802785352594 
758	 0,13614322204363 
759	 0,136785001373777 
760	 0,137175827140272 
761	 0,137213817620942 
762	 0,13741021522101 
763	 0,137728351620381 
764	 0,138110515377176 
765	 0,138640469449368 
766	 0,13913082293937 
767	 0,139072533244883 
768	 0,139019941002899 
769	 0,139190961470113 
770	 0,139401392801483 
771	 0,139581445943358 
772	 0,139671777156517 
773	 0,140095099238077 
774	 0,140712394609684 
775	 0,140823644811753 
776	 0,140860502445468 
777	 0,141012926160938 
778	 0,140930360121771 
779	 0,14086605094612 
780	 0,141232661040874 
781	 0,14151375125513 
782	 0,141643710701943 
783	 0,14191358070591 
784	 0,142248715872829 
785	 0,142573450621581 
786	 0,142729405716495 
787	 0,142722917413647 
788	 0,142588805733519 
789	 0,142710996630983 
790	 0,143107545469645 
791	 0,143345020684088 
792	 0,143270188388153 
793	 0,142874629946078 
794	 0,143349223792483 
795	 0,144229970078604 
796	 0,144088729286795 
797	 0,143970373010849 
798	 0,144147491973579 
799	 0,144226534144539 
800	 0,144161089143731 
801	 0,143970626965343 
802	 0,144378704917442 
803	 0,145082835323557 
804	 0,144923107992701 
805	 0,145021437870183 
806	 0,145594842558503 
807	 0,145427068365597 
808	 0,145307956101617 
809	 0,146101999209116 
810	 0,146207581907992 
811	 0,145773992037432 
812	 0,146164599741463 
813	 0,14655799276716 
814	 0,146695378279814 
815	 0,147184460237285 
816	 0,147584226489595 
817	 0,147348921075637 
818	 0,147613455144503 
819	 0,148238106016569 
820	 0,147982524386244 
821	 0,147776392578 
822	 0,148034348449409 
823	 0,148363131417344 
824	 0,148639725888422 
825	 0,148760252366145 
826	 0,149105287784498 
827	 0,149595282413346 
828	 0,149649824757232 
829	 0,149854872446511 
830	 0,150423741268858 
831	 0,150640046633967 
832	 0,150546943071336 
833	 0,150316455237925 
834	 0,15083501869004 
835	 0,151868216528811 
836	 0,151884764176015 
837	 0,151851988231697 
838	 0,152201129421126 
839	 0,152080752191207 
840	 0,151742970378372 
841	 0,151662513215584 
842	 0,151598661648963 
843	 0,151534329913733 
844	 0,151556908537637 
845	 0,151734736205183 
846	 0,152021794618001 
847	 0,151846785634084 
848	 0,151538222490978 
849	 0,151641739803835 
850	 0,151879408013935 
851	 0,152092486937163 
852	 0,152015778175606 
853	 0,151828594534088 
854	 0,151680578822738 
855	 0,151818532975692 
856	 0,15208576211007 
857	 0,152228347817585 
858	 0,152435765889248 
859	 0,15258920088819 
860	 0,152148993477833 
861	 0,151923854184151 
862	 0,152247859543306 
863	 0,152153229992579 
864	 0,152269196416703 
865	 0,153494626988453 
866	 0,153760718942203 
867	 0,153261974952127 
868	 0,154309765593248 
869	 0,154660943182944 
870	 0,153592204766231 
871	 0,153617615190002 
872	 0,154207635173059 
873	 0,154442320173041 
874	 0,154681609231399 
875	 0,15498289397419 
876	 0,155297501597514 
877	 0,155906787913673 
878	 0,156812233537922 
879	 0,157377367931293 
880	 0,157612956589616 
881	 0,157611033455056 
882	 0,157670836644501 
883	 0,157819200375172 
884	 0,157861318644807 
885	 0,158173065834981 
886	 0,158839123293758 
887	 0,15960436698097 
888	 0,159990107631016 
889	 0,15966040468503 
890	 0,160089855428959 
891	 0,16060358111208 
892	 0,158967462213644 
893	 0,158746133975899 
894	 0,160395906756192 
895	 0,16040594569626 
896	 0,159814025531022 
897	 0,159545976251723 
898	 0,159387509811229 
899	 0,159531431581293 
900	 0,160351270544492 
901	 0,160579112917358 
902	 0,160088131356788 
903	 0,159941199988001 
904	 0,15993194508285 
905	 0,159928722942118 
906	 0,159889830913169 
907	 0,159946227946839 
908	 0,160287786880501 
909	 0,160157680795381 
910	 0,159856063971072 
911	 0,160985693568642 
912	 0,161825407534002 
913	 0,161604243874564 
914	 0,161019170432767 
915	 0,160842048757803 
916	 0,161761134479271 
917	 0,161876594959516 
918	 0,161281511953543 
919	 0,161210731066824 
920	 0,161448418572811 
921	 0,161686647077908 
922	 0,160575782413219 
923	 0,159971320750409 
924	 0,161345551422307 
925	 0,162863192855767 
926	 0,163750216394049 
927	 0,163274411973003 
928	 0,162342756111046 
929	 0,161378270923731 
930	 0,160477702205526 
931	 0,160957692428105 
932	 0,16297013309549 
933	 0,1619973103176 
934	 0,160177443051769 
935	 0,160835848121401 
936	 0,161506688725077 
937	 0,161498704592286 
938	 0,160413977390651 
939	 0,159313638187878 
940	 0,158852013019785 
941	 0,159783658589042 
942	 0,160454485709881 
943	 0,15950390475848 
944	 0,159201332131854 
945	 0,15914317112478 
946	 0,157845433192941 
947	 0,157455670799808 
948	 0,15783675901766 
949	 0,155967284347066 
950	 0,155018900612292 
951	 0,156261967271039 
952	 0,155162928344087 
953	 0,153212473044582 
954	 0,152722578729827 
955	 0,152506726970295 
956	 0,152331656819181 
957	 0,152281251037072 
958	 0,151443325934568 
959	 0,149990490999144 
960	 0,1501799090804 
961	 0,150801227892754 
962	 0,150842375884869 
963	 0,150747285072738 
964	 0,149989353602638 
965	 0,147751469942135 
966	 0,147496371881368 
967	 0,149125522577754 
968	 0,149680934405885 
969	 0,148414713148711 
970	 0,146042538695289 
971	 0,148671596799646 
972	 0,150989397376476 
973	 0,148346804991005 
974	 0,148293411653309 
975	 0,150249082595051 
976	 0,150934181431684 
977	 0,150431275463282 
978	 0,149280735352388 
979	 0,149541234034954 
980	 0,149760965597686 
981	 0,149637610851096 
982	 0,152190854811066 
983	 0,153199794245126 
984	 0,148867867879064 
985	 0,148347887356017 
986	 0,151221788623666 
987	 0,153341049107283 
988	 0,152617858585947 
989	 0,150165984581421 
990	 0,152953006629728 
991	 0,154968224550856 
992	 0,153766238341333 
993	 0,155148986104866 
994	 0,15701699303097 
995	 0,156723992189529 
996	 0,154499058006483 
997	 0,152515642090912 
998	 0,154842204521832 
999	 0,156192774956084 
1000	 0,156085468756445 
1001	 0,158778787758811 
1002	 0,160358834779038 
1003	 0,159212299335273 
1004	 0,157988208614926 
1005	 0,1583775878975 
1006	 0,161283901887664 
1007	 0,159986119635043 
1008	 0,15823405949209 
1009	 0,164646301170409 
1010	 0,167102579515566 
1011	 0,16384324662401 
1012	 0,159742799474639 
1013	 0,160111019203513 
1014	 0,165621425780775 
1015	 0,165605031831431 
1016	 0,163494523201928 
1017	 0,162944163468032 
1018	 0,164833529672859 
1019	 0,166934646238627 
1020	 0,16576104065172 
1021	 0,163213259273748 
1022	 0,16194027242878 
1023	 0,168050032150775 
1024	 0,170927872650121 
1025	 0,168721225403878 
1026	 0,171930447055074 
1027	 0,172992007946834 
1028	 0,167821564553211 
1029	 0,165103272974143 
1030	 0,165867179493809 
1031	 0,169751243852203 
1032	 0,172525550320581 
1033	 0,173355988937476 
1034	 0,172629019929915 
1035	 0,173176718699361 
1036	 0,174035437537763 
1037	 0,167544448051377 
1038	 0,16764777767402 
1039	 0,177352332787589 
1040	 0,177540801870204 
1041	 0,172349927859296 
1042	 0,167349061840504 
1043	 0,170333346575225 
1044	 0,175827984395357 
1045	 0,175077612026483 
1046	 0,182085677241346 
1047	 0,192702999987793 
1048	 0,189672222019142 
1049	 0,186765176718933 
1050	 0,186503903424104 
1051	 0,182316586545682 
1052	 0,178653792843569 
1053	 0,177495267795633 
1054	 0,176029740485196 
1055	 0,179357148121455 
1056	 0,189273499531899 
1057	 0,184271065641232 
1058	 0,174597328873082 
1059	 0,179116436132956 
1060	 0,185608806650125 
1061	 0,188377640655628 
1062	 0,180842699604437 
1063	 0,176831574718553 
1064	 0,179180274970672 
1065	 0,181042850893476 
1066	 0,18135447736544 
1067	 0,178316807890516 
1068	 0,16462666625703 
1069	 0,162357972199837 
1070	 0,184185855400867 
1071	 0,189414527514163 
1072	 0,185294463166006 
1073	 0,185370977333821 
1074	 0,190119448163897 
1075	 0,194166750477723 
