Wavelength	SCORFF200880.asd
325	 0,176223245694082 
326	 0,166917632408255 
327	 0,151426302067186 
328	 0,129747758307781 
329	 0,122877172067951 
330	 0,112728759890582 
331	 8,89517132194956E-02 
332	 0,167099659979757 
333	 0,249449355440537 
334	 0,13085741381234 
335	 0,106075619759428 
336	 0,216965550640414 
337	 0,184756249280465 
338	 8,40990178679013E-02 
339	 2,48050225554355E-02 
340	 3,79010818725921E-02 
341	 7,65446147142586E-02 
342	 0,04509591998031 
343	 8,78519514005109E-02 
344	 0,18852574246362 
345	 0,156958575581395 
346	 8,63950124943422E-02 
347	 7,34839823891416E-02 
348	 8,89174966242763E-02 
349	 0,108571559949419 
350	 0,090472955366117 
351	 7,68633645492497E-02 
352	 0,085225334788813 
353	 0,098629542952073 
354	 9,43942349711511E-02 
355	 4,50905071378735E-02 
356	 3,31208841918926E-02 
357	 5,98837213317284E-02 
358	 0,066479611377023 
359	 0,081600070360684 
360	 0,104995196867144 
361	 2,90891293936417E-02 
362	-4,76562765353505E-02 
363	 3,24032367587144E-02 
364	 7,76864669925783E-02 
365	 0,069990695524531 
366	 9,48154108302388E-02 
367	 9,71688150542319E-02 
368	 5,16034656116405E-02 
369	 2,54268224479627E-02 
370	 2,45329378602599E-02 
371	 4,62685401439625E-02 
372	 3,75886373672887E-02 
373	 1,61203759974113E-03 
374	 2,16891914590794E-02 
375	 4,77721704407501E-02 
376	 4,46705196641843E-02 
377	 4,73273125921412E-02 
378	 5,23371432057796E-02 
379	 4,22074564460516E-02 
380	 0,027692474189052 
381	 0,018490904793277 
382	 4,33458515347229E-02 
383	 6,36988104954605E-02 
384	 4,74412692469979E-02 
385	 3,92430470611966E-02 
386	 4,38989143213574E-02 
387	 5,27474851499715E-02 
388	 5,29641277292189E-02 
389	 4,04580221757928E-02 
390	 2,16121231621095E-02 
391	 1,46495876111314E-02 
392	 4,08654941054714E-02 
393	 3,80306917128159E-02 
394	 1,21506047730457E-02 
395	 2,51112984073428E-02 
396	 0,034298668225231 
397	 2,20856662170227E-02 
398	 2,00446929729012E-02 
399	 2,66950017854032E-02 
400	 3,51110929949561E-02 
401	 3,61163940450694E-02 
402	 3,02286372190761E-02 
403	 2,98392708951227E-02 
404	 3,15296661041848E-02 
405	 0,03221413884245 
406	 2,67391175035342E-02 
407	 2,02470235230783E-02 
408	 2,41622803910516E-02 
409	 3,24374205784178E-02 
410	 4,01785942915938E-02 
411	 3,66051180445377E-02 
412	 2,81327499078749E-02 
413	 2,15146076902604E-02 
414	 2,28432982836038E-02 
415	 2,90639541111492E-02 
416	 2,99368930532717E-02 
417	 3,09613210809843E-02 
418	 3,28531837007914E-02 
419	 2,66503608745908E-02 
420	 2,04444651497333E-02 
421	 2,53204064364735E-02 
422	 2,54186517675232E-02 
423	 2,13989637458283E-02 
424	 2,79894955810446E-02 
425	 3,35359105098425E-02 
426	 3,12252003364624E-02 
427	 2,54287614947601E-02 
428	 2,07908373608282E-02 
429	 2,44374846288458E-02 
430	 2,45481163323564E-02 
431	 2,02423135282079E-02 
432	 2,41685027145819E-02 
433	 2,82824085486578E-02 
434	 2,56388057347392E-02 
435	 2,83892735594414E-02 
436	 0,033499346746987 
437	 2,78308722380404E-02 
438	 2,24715295266107E-02 
439	 0,022032436889481 
440	 2,48270940685125E-02 
441	 2,68484089398166E-02 
442	 2,33947077733303E-02 
443	 2,12348867562138E-02 
444	 2,21353296746868E-02 
445	 2,63957110587557E-02 
446	 2,87481426389577E-02 
447	 2,62955930147865E-02 
448	 2,47542133948987E-02 
449	 2,45101709799511E-02 
450	 2,45178184410018E-02 
451	 2,59614234275467E-02 
452	 0,028392609699205 
453	 2,86378514398153E-02 
454	 2,77794618356397E-02 
455	 2,69622061587115E-02 
456	 2,57048153405351E-02 
457	 0,024387421105957 
458	 2,35778731354093E-02 
459	 2,54027763810918E-02 
460	 2,95723125609584E-02 
461	 2,84844781058448E-02 
462	 2,54360910984115E-02 
463	 0,025748511787098 
464	 2,56337342841159E-02 
465	 2,45251717712627E-02 
466	 2,31872440944359E-02 
467	 2,37678637908993E-02 
468	 2,71790635801814E-02 
469	 0,02862619496776 
470	 2,74489968661973E-02 
471	 2,33699517535245E-02 
472	 2,24452834001952E-02 
473	 2,55577233161494E-02 
474	 2,57307921312029E-02 
475	 2,58532386331611E-02 
476	 2,88797130996537E-02 
477	 2,88631213575824E-02 
478	 0,026218809576171 
479	 0,025199577300704 
480	 2,53253920459101E-02 
481	 0,026267830965028 
482	 0,02663083056418 
483	 2,66652377344208E-02 
484	 2,70091357243081E-02 
485	 2,75580659488424E-02 
486	 2,78232662788868E-02 
487	 2,56962158304165E-02 
488	 2,53528172673792E-02 
489	 2,92765436793677E-02 
490	 2,82418738436616E-02 
491	 2,40188202707523E-02 
492	 2,41626460937108E-02 
493	 2,36892408679695E-02 
494	 2,16381214766025E-02 
495	 2,14811780873839E-02 
496	 2,31216109386297E-02 
497	 2,60897223354041E-02 
498	 2,67110923772241E-02 
499	 2,54502545645838E-02 
500	 2,66861949842861E-02 
501	 2,78105253005378E-02 
502	 0,027347127076775 
503	 2,57549734473717E-02 
504	 2,45567989788483E-02 
505	 2,62766179871385E-02 
506	 2,75689138089381E-02 
507	 2,74425466402498E-02 
508	 2,62852593075347E-02 
509	 2,59903766202034E-02 
510	 2,80429260416032E-02 
511	 0,028752314464186 
512	 2,79383165422881E-02 
513	 2,68637770030241E-02 
514	 2,67842923509949E-02 
515	 2,78837793033972E-02 
516	 2,71117645979684E-02 
517	 2,56461375859885E-02 
518	 2,54941164313975E-02 
519	 0,026418797339509 
520	 2,80244143351012E-02 
521	 2,93809793425265E-02 
522	 2,93006467030652E-02 
523	 2,72776357238832E-02 
524	 2,73226126864518E-02 
525	 2,88192674860048E-02 
526	 2,90636446009929E-02 
527	 2,81763728278585E-02 
528	 2,66599888219281E-02 
529	 2,72266422277376E-02 
530	 2,87644714037579E-02 
531	 2,97552469800535E-02 
532	 2,86891596981041E-02 
533	 2,64659755244618E-02 
534	 2,69131028771098E-02 
535	 2,81279695462829E-02 
536	 2,88715302586453E-02 
537	 2,86397849115195E-02 
538	 2,82637355217456E-02 
539	 2,95351833769421E-02 
540	 2,97918306528532E-02 
541	 2,86782596021228E-02 
542	 2,86057499506621E-02 
543	 2,90582315676684E-02 
544	 2,93852532959484E-02 
545	 2,90221927116401E-02 
546	 2,84267814131918E-02 
547	 2,93228810553333E-02 
548	 2,98131546356918E-02 
549	 2,92056104610535E-02 
550	 2,96831110795529E-02 
551	 3,05489447468486E-02 
552	 3,03511493635021E-02 
553	 3,02734198066146E-02 
554	 3,05046234973355E-02 
555	 3,04159779126624E-02 
556	 3,03365346420197E-02 
557	 3,05195223294781E-02 
558	 3,04770141468586E-02 
559	 3,01785553917948E-02 
560	 2,96215746242644E-02 
561	 2,98139309951716E-02 
562	 3,08592408280992E-02 
563	 0,030631998801543 
564	 2,98418377258491E-02 
565	 2,96705081682789E-02 
566	 3,00480309589925E-02 
567	 3,07738013990787E-02 
568	 0,031173773935999 
569	 0,031353082225203 
570	 3,13846140755909E-02 
571	 0,031209005127591 
572	 3,11211477682071E-02 
573	 3,17427901700654E-02 
574	 3,24467708770796E-02 
575	 3,29328564208809E-02 
576	 3,30230265228976E-02 
577	 3,29110724196402E-02 
578	 3,28337790698534E-02 
579	 3,26161679716629E-02 
580	 3,24674431187969E-02 
581	 3,31785380263175E-02 
582	 3,35346335292365E-02 
583	 3,30018405018885E-02 
584	 3,33803247850067E-02 
585	 0,034096448275098 
586	 3,37271151084298E-02 
587	 3,33905967134031E-02 
588	 3,34455211784656E-02 
589	 3,38684791705224E-02 
590	 3,42915357963147E-02 
591	 3,43813393909069E-02 
592	 0,034532751240311 
593	 3,46515536428152E-02 
594	 3,42047582143864E-02 
595	 3,40183212315317E-02 
596	 3,44154156510555E-02 
597	 3,46231698674541E-02 
598	 3,48513542682818E-02 
599	 3,55723745345307E-02 
600	 3,55679880891322E-02 
601	 3,47534855996379E-02 
602	 0,034135518852718 
603	 3,39538093685357E-02 
604	 3,43679276862984E-02 
605	 0,03518802347923 
606	 0,035816086265534 
607	 3,49240772230344E-02 
608	 3,41400098090872E-02 
609	 3,40577301106415E-02 
610	 3,40638970530631E-02 
611	 3,39720583530681E-02 
612	 3,36176897768326E-02 
613	 3,34627774516961E-02 
614	 3,36261601856416E-02 
615	 3,41317512081605E-02 
616	 3,44546262090442E-02 
617	 3,42282150729789E-02 
618	 3,33408446584565E-02 
619	 3,27384333570025E-02 
620	 3,44167596935202E-02 
621	 3,50230495981673E-02 
622	 3,39281172249575E-02 
623	 3,40295626706618E-02 
624	 3,43884594068545E-02 
625	 0,033920966739198 
626	 3,42473553178451E-02 
627	 3,50931184551871E-02 
628	 3,46777383533863E-02 
629	 3,42319844336382E-02 
630	 3,43530790967745E-02 
631	 3,44705324917078E-02 
632	 3,45863687579226E-02 
633	 3,48338157718373E-02 
634	 3,45634160613973E-02 
635	 3,40404885508747E-02 
636	 3,52160774983563E-02 
637	 3,62142386106299E-02 
638	 3,55121002219944E-02 
639	 0,035446544241805 
640	 3,60097533715414E-02 
641	 0,036052874240377 
642	 3,61605402738152E-02 
643	 3,64704961144054E-02 
644	 0,036487923479652 
645	 3,63959361629617E-02 
646	 3,64883930744494E-02 
647	 3,63721864098071E-02 
648	 3,61426880070121E-02 
649	 3,64287575849094E-02 
650	 0,036890040430054 
651	 3,72114840769258E-02 
652	 3,67972425276214E-02 
653	 3,60448249273087E-02 
654	 3,59338705935545E-02 
655	 3,58447297968884E-02 
656	 3,56566410523181E-02 
657	 0,035829718383835 
658	 3,57627648088465E-02 
659	 3,48590978577005E-02 
660	 3,43598168198345E-02 
661	 3,44246928856927E-02 
662	 3,47782274065709E-02 
663	 3,45708303636252E-02 
664	 3,35981912865982E-02 
665	 3,39389953021631E-02 
666	 3,46647967566836E-02 
667	 3,39436776817072E-02 
668	 3,36034829849307E-02 
669	 3,39392865910811E-02 
670	 3,39960087927795E-02 
671	 3,39299933012989E-02 
672	 3,38847578045605E-02 
673	 3,38088921981343E-02 
674	 0,033833576043272 
675	 3,43641708114537E-02 
676	 3,44950359776218E-02 
677	 3,40037071259768E-02 
678	 3,36781615910488E-02 
679	 3,38433782990141E-02 
680	 3,47729163006925E-02 
681	 3,49755593706338E-02 
682	 3,44838735547952E-02 
683	 3,46810087381995E-02 
684	 3,48033618084878E-02 
685	 0,034534280994402 
686	 3,50920974074141E-02 
687	 3,59712595130052E-02 
688	 0,03596100269979 
689	 3,64547136435017E-02 
690	 3,76378635707155E-02 
691	 3,84310600518258E-02 
692	 3,89414236564818E-02 
693	 3,93611938189082E-02 
694	 4,05506105806345E-02 
695	 4,21518648931248E-02 
696	 4,26951959204391E-02 
697	 4,38123493462078E-02 
698	 4,59896659816386E-02 
699	 0,04769736720708 
700	 4,94402872492105E-02 
701	 5,20451246761402E-02 
702	 5,41600632087602E-02 
703	 5,58346176619324E-02 
704	 5,84450022723242E-02 
705	 6,11073111159589E-02 
706	 6,32575449416635E-02 
707	 6,51819433706116E-02 
708	 6,71996079429632E-02 
709	 0,069857243260014 
710	 7,21600888914723E-02 
711	 7,38416341532863E-02 
712	 7,52124591931553E-02 
713	 7,68602368935525E-02 
714	 7,92343976064304E-02 
715	 8,08671592931354E-02 
716	 8,19378905156572E-02 
717	 8,37310611514404E-02 
718	 8,53198808109134E-02 
719	 8,63919013549014E-02 
720	 8,74392053625577E-02 
721	 8,86462659092352E-02 
722	 9,01842093754306E-02 
723	 9,13341402479046E-02 
724	 9,20040983166015E-02 
725	 9,25343642911634E-02 
726	 0,093126104802335 
727	 9,38773674615992E-02 
728	 9,43882332487486E-02 
729	 9,47621485042475E-02 
730	 9,52688392766842E-02 
731	 9,59240457197603E-02 
732	 9,66333195650712E-02 
733	 9,69589413829604E-02 
734	 9,72614645327097E-02 
735	 9,78247198616466E-02 
736	 9,78257977641107E-02 
737	 9,76945669844734E-02 
738	 0,098975294412982 
739	 9,96436703835891E-02 
740	 9,91925460834742E-02 
741	 9,95115212694563E-02 
742	 0,100103006775373 
743	 0,10022311423111 
744	 0,100303820720828 
745	 0,100424895074535 
746	 0,100574931281255 
747	 0,100568397781314 
748	 0,100374764703307 
749	 0,100502451218684 
750	 0,100866908537554 
751	 0,101238485999345 
752	 0,101687622177358 
753	 0,102111451249304 
754	 0,102111351053296 
755	 0,102157012561148 
756	 0,102544383007579 
757	 0,102567943508707 
758	 0,102421872523252 
759	 0,102711236934972 
760	 0,103073561956794 
761	 0,103348559631044 
762	 0,103374898458331 
763	 0,103364062194665 
764	 0,103517743800603 
765	 0,103636835979403 
766	 0,103738245453716 
767	 0,103965349041849 
768	 0,104196828838641 
769	 0,104343635941367 
770	 0,104210034220535 
771	 0,104078409890533 
772	 0,104293087320614 
773	 0,104742437883817 
774	 0,105189529186611 
775	 0,105010349667348 
776	 0,104881579109091 
777	 0,10510686056178 
778	 0,105104850754063 
779	 0,105028134335281 
780	 0,105188430963043 
781	 0,105353038281682 
782	 0,10547711775251 
783	 0,10565067367828 
784	 0,105730931446117 
785	 0,105646475999249 
786	 0,105596799983069 
787	 0,105718602701169 
788	 0,106209716841026 
789	 0,106494154095289 
790	 0,106485808841788 
791	 0,106727766006345 
792	 0,106732794093201 
793	 0,106198589653565 
794	 0,106310566152409 
795	 0,106842200928644 
796	 0,10688961972428 
797	 0,106813405631498 
798	 0,106739213841912 
799	 0,106762794044926 
800	 0,106770338826868 
801	 0,106692215761377 
802	 0,107247014093089 
803	 0,108069337727124 
804	 0,107902426788626 
805	 0,107738698022276 
806	 0,107897078459324 
807	 0,108000764351231 
808	 0,10809777678729 
809	 0,108252756430128 
810	 0,10820372335284 
811	 0,108123498272362 
812	 0,108682941908983 
813	 0,109025152580847 
814	 0,108835058469369 
815	 0,108585348802052 
816	 0,108670001138023 
817	 0,109458657577311 
818	 0,109485572999806 
819	 0,10889105384572 
820	 0,109205136464862 
821	 0,109338295478069 
822	 0,108919737053222 
823	 0,108990647826908 
824	 0,10935263518575 
825	 0,10961745083831 
826	 0,109909019870852 
827	 0,110135507959935 
828	 0,109968532724628 
829	 0,109815105999934 
830	 0,109873118441794 
831	 0,109856262485634 
832	 0,109854572668375 
833	 0,110024809129076 
834	 0,110258452499981 
835	 0,110501439882908 
836	 0,110679991319335 
837	 0,11091149348567 
838	 0,111187176776222 
839	 0,11099636179589 
840	 0,110690500026265 
841	 0,110830308445715 
842	 0,111125499374923 
843	 0,111405598320732 
844	 0,111384079618477 
845	 0,111246459248692 
846	 0,111142155603917 
847	 0,111339968768088 
848	 0,111496465535971 
849	 0,111095196796893 
850	 0,111117996101637 
851	 0,11153656078156 
852	 0,11138786700696 
853	 0,111289261880031 
854	 0,111507236153465 
855	 0,1114455897008 
856	 0,111307149958817 
857	 0,111449502607939 
858	 0,111517006407908 
859	 0,111451384595879 
860	 0,111352986915409 
861	 0,111256665751823 
862	 0,111204618713372 
863	 0,11129415075354 
864	 0,11142061943411 
865	 0,111437014384555 
866	 0,111279159393177 
867	 0,111158447975372 
868	 0,11186561511023 
869	 0,111968474340434 
870	 0,111064216759011 
871	 0,111265892317382 
872	 0,111870608055695 
873	 0,111815223150146 
874	 0,111938726723846 
875	 0,112314298215585 
876	 0,112643044711836 
877	 0,113049653271245 
878	 0,113486768466792 
879	 0,113467406033578 
880	 0,113411609102416 
881	 0,113751979637981 
882	 0,113083842491056 
883	 0,112062010099667 
884	 0,113186133043923 
885	 0,113936020644342 
886	 0,113695355607754 
887	 0,11449157104274 
888	 0,114920784997062 
889	 0,113731428463324 
890	 0,113378507347517 
891	 0,113843227845866 
892	 0,114036990658556 
893	 0,114433906712242 
894	 0,114981616161351 
895	 0,115088496695826 
896	 0,114616579166522 
897	 0,113604008010954 
898	 0,113156083911121 
899	 0,113345571079192 
900	 0,113961565478556 
901	 0,114165730547486 
902	 0,113845086606281 
903	 0,113662525286044 
904	 0,113760626872386 
905	 0,11413074475002 
906	 0,113980522368605 
907	 0,113665993067754 
908	 0,113829064464139 
909	 0,113493332286106 
910	 0,112974848483984 
911	 0,114081928202773 
912	 0,114763929814761 
913	 0,114148415579559 
914	 0,113227179154343 
915	 0,11323735330268 
916	 0,115235986817952 
917	 0,115224082703329 
918	 0,113723316100519 
919	 0,114212407460172 
920	 0,114810332933857 
921	 0,114916082409132 
922	 0,114783684461112 
923	 0,114308450790108 
924	 0,113550580727063 
925	 0,113950682567666 
926	 0,114832709061699 
927	 0,11457827280825 
928	 0,114263746724747 
929	 0,114228661682873 
930	 0,114553939632746 
931	 0,115013335807747 
932	 0,115366268207964 
933	 0,114958842650652 
934	 0,114797914351555 
935	 0,116183129928809 
936	 0,117096658312999 
937	 0,116921559389175 
938	 0,11518244051195 
939	 0,114270944216329 
940	 0,114919025916879 
941	 0,11535610969843 
942	 0,115000575836868 
943	 0,113681337120804 
944	 0,114381100323042 
945	 0,115777432010958 
946	 0,114460491124577 
947	 0,114091428734386 
948	 0,114899670629225 
949	 0,113710239188206 
950	 0,112563468266309 
951	 0,112686527239801 
952	 0,113850507240547 
953	 0,114578366934841 
954	 0,113247164378209 
955	 0,112366976565789 
956	 0,112232067493729 
957	 0,112129071135406 
958	 0,111815722647666 
959	 0,111242345538393 
960	 0,110608725080409 
961	 0,110838732943711 
962	 0,11239692199606 
963	 0,113318743244039 
964	 0,113102582243282 
965	 0,111512942028575 
966	 0,111684171085196 
967	 0,113335484233903 
968	 0,113054613995867 
969	 0,11170961264728 
970	 0,110214060413364 
971	 0,111646956354225 
972	 0,112369621440063 
973	 0,10944062735725 
974	 0,110014527730647 
975	 0,112663381658761 
976	 0,112748733150277 
977	 0,111063963441896 
978	 0,108975974240345 
979	 0,110542572937276 
980	 0,11222812401815 
981	 0,112669118778057 
982	 0,115363779140256 
983	 0,116836168328286 
984	 0,113856606467148 
985	 0,11343583288645 
986	 0,115204900844427 
987	 0,115838488715355 
988	 0,115471554467026 
989	 0,114858094437351 
990	 0,117073286426566 
991	 0,118234384871729 
992	 0,116699869032267 
993	 0,115875471051875 
994	 0,116006169010865 
995	 0,116831871070247 
996	 0,115788701121654 
997	 0,113900788495024 
998	 0,114031244654268 
999	 0,115617609208497 
1000	 0,117965117594247 
1001	 0,119365595000932 
1002	 0,11931226935593 
1003	 0,117942527266851 
1004	 0,117672974550107 
1005	 0,117755115812344 
1006	 0,117377461673245 
1007	 0,118080580251993 
1008	 0,11974607120856 
1009	 0,121791846334771 
1010	 0,120403617405835 
1011	 0,116403488988505 
1012	 0,115506609113522 
1013	 0,117913971214104 
1014	 0,12235226457912 
1015	 0,122104687312552 
1016	 0,119121483865273 
1017	 0,116053582231305 
1018	 0,117350233566195 
1019	 0,120021457485206 
1020	 0,118693727896576 
1021	 0,12084434573462 
1022	 0,125537686466653 
1023	 0,125777360072222 
1024	 0,12371440885592 
1025	 0,121148391916914 
1026	 0,123040082968724 
1027	 0,124426338325281 
1028	 0,122309233510262 
1029	 0,12033646257366 
1030	 0,12164011861457 
1031	 0,128330387083536 
1032	 0,125175474547793 
1033	 0,11848359415138 
1034	 0,126841919708663 
1035	 0,134468716666719 
1036	 0,136250950429429 
1037	 0,130880246834864 
1038	 0,126738490487293 
1039	 0,12698583931272 
1040	 0,12466644561816 
1041	 0,120906602462953 
1042	 0,117723544708942 
1043	 0,120112628310924 
1044	 0,124643235598358 
1045	 0,125654491367071 
1046	 0,125003437135254 
1047	 0,126577675663872 
1048	 0,138897406113961 
1049	 0,14141828368755 
1050	 0,132521933462775 
1051	 0,131408276177916 
1052	 0,133927141512443 
1053	 0,136126701691439 
1054	 0,126716672113943 
1055	 0,123772800736534 
1056	 0,139536984438719 
1057	 0,138478556200757 
1058	 0,129268107087396 
1059	 0,131225786367666 
1060	 0,132803767365053 
1061	 0,131771297043677 
1062	 0,127972322821655 
1063	 0,129689697656923 
1064	 0,136627372217648 
1065	 0,13876934730664 
1066	 0,134521290999274 
1067	 0,12414930138358 
1068	 0,109567822463962 
1069	 0,112839182833981 
1070	 0,143690880157877 
1071	 0,149652105288247 
1072	 0,140015759285128 
1073	 0,132497372814541 
1074	 0,126678291950322 
1075	 0,123764896529939 
