Wavelength	SCORFF200367.asd
325	 0,252253606306877 
326	 0,35116143133069 
327	 0,329669031779918 
328	 0,198732704215542 
329	 0,267803506407681 
330	 0,37416093823085 
331	 0,39796951763479 
332	 0,272725152635973 
333	 0,138099128654995 
334	 0,215192550857228 
335	 0,295438286224655 
336	 0,27986309885217 
337	 0,227005507462742 
338	 0,190732545149689 
339	 0,248818619353199 
340	 0,244329409590424 
341	 0,2054805041324 
342	 0,226007010742365 
343	 0,272693859972757 
344	 0,302972738184925 
345	 0,228316905886628 
346	 0,151311099668931 
347	 0,17986617355135 
348	 0,210598936487221 
349	 0,218200712725601 
350	 0,18668056434501 
351	 0,184683290082365 
352	 0,228634852876892 
353	 0,243675303300717 
354	 0,228919738228751 
355	 0,183928221450466 
356	 0,173901663155267 
357	 0,200210210396852 
358	 0,2156097915351 
359	 0,230643788043326 
360	 0,243341362054453 
361	 0,196714057184613 
362	 0,158325367673817 
363	 0,23230307831598 
364	 0,248918278998659 
365	 0,203231111287959 
366	 0,206732207077045 
367	 0,227867754159909 
368	 0,241426483832222 
369	 0,210370336475397 
370	 0,167839564704028 
371	 0,189571916988529 
372	 0,197674896945973 
373	 0,182716174834061 
374	 0,202691429980094 
375	 0,216038037871871 
376	 0,195933370936845 
377	 0,194236438607438 
378	 0,20821452814483 
379	 0,21574601033978 
380	 0,215692402040463 
381	 0,21078189776421 
382	 0,223715607538661 
383	 0,23089835679276 
384	 0,212651634150226 
385	 0,206642753599406 
386	 0,213032814687275 
387	 0,212797124349803 
388	 0,215155754345028 
389	 0,219200251856602 
390	 0,200952336138985 
391	 0,186397941237816 
392	 0,20910064662902 
393	 0,210183682367213 
394	 0,192366194286752 
395	 0,204203094677882 
396	 0,213224995040418 
397	 0,205648227866722 
398	 0,20268549924021 
399	 0,202812191760042 
400	 0,199662367794687 
401	 0,202378375017625 
402	 0,208607631607256 
403	 0,200206738882135 
404	 0,199656676487267 
405	 0,218506712191277 
406	 0,213438516500772 
407	 0,19737838054131 
408	 0,208941223285353 
409	 0,216484943922726 
410	 0,212745871714113 
411	 0,210367321751354 
412	 0,205340322088365 
413	 0,194367617485454 
414	 0,197360257552268 
415	 0,209395204942207 
416	 0,211161552542583 
417	 0,205666217578081 
418	 0,195939119963786 
419	 0,191532422287239 
420	 0,193781911482278 
421	 0,203122770747785 
422	 0,207231607445339 
423	 0,204657303149647 
424	 0,201252646656698 
425	 0,199476827620265 
426	 0,200487540721109 
427	 0,199762791469564 
428	 0,199007655604542 
429	 0,202582420692358 
430	 0,204321683081464 
431	 0,203324114535048 
432	 0,204503176850593 
433	 0,205269080346239 
434	 0,203373751355283 
435	 0,202287436920549 
436	 0,202849858974308 
437	 0,20608148264791 
438	 0,206323429065936 
439	 0,20241747256474 
440	 0,203148691100765 
441	 0,205362232817962 
442	 0,204133231225648 
443	 0,203332475844324 
444	 0,204222720198762 
445	 0,208679637492332 
446	 0,209422605576941 
447	 0,203050665626001 
448	 0,201720380571511 
449	 0,204481759010762 
450	 0,206228066999459 
451	 0,208599143656289 
452	 0,211110131445243 
453	 0,210584939839112 
454	 0,20915998644772 
455	 0,208867146008661 
456	 0,207489904708104 
457	 0,205826234822167 
458	 0,2069761298949 
459	 0,207989136102964 
460	 0,207751530764722 
461	 0,207695867688773 
462	 0,208311542937893 
463	 0,210088897423443 
464	 0,20913999015628 
465	 0,206281053315082 
466	 0,207875702624042 
467	 0,209871390803023 
468	 0,209682891906748 
469	 0,210276851037296 
470	 0,21131140254497 
471	 0,211463332720666 
472	 0,21023775641876 
473	 0,208401798362902 
474	 0,210238429002606 
475	 0,212481121408736 
476	 0,211764781017415 
477	 0,209894210047746 
478	 0,208138173835092 
479	 0,208835584728831 
480	 0,209872789002765 
481	 0,210073281328973 
482	 0,208992967638408 
483	 0,207504483932039 
484	 0,206857736332152 
485	 0,207666510116529 
486	 0,209346066482209 
487	 0,2089448841806 
488	 0,209028080288384 
489	 0,211280412695001 
490	 0,211782601993716 
491	 0,210758594761686 
492	 0,210241437151892 
493	 0,20904803786397 
494	 0,207410024576901 
495	 0,20820946790096 
496	 0,20958165112974 
497	 0,209238334129174 
498	 0,210188915915295 
499	 0,211830275613863 
500	 0,210377818835328 
501	 0,208450886117542 
502	 0,207799588084763 
503	 0,209460226537939 
504	 0,211779289638101 
505	 0,211652770298096 
506	 0,212300383662483 
507	 0,213819679101825 
508	 0,212427816654844 
509	 0,210706996677539 
510	 0,211057527684098 
511	 0,211534113902158 
512	 0,211909756139188 
513	 0,212760412197526 
514	 0,212714613291546 
515	 0,211446593965891 
516	 0,210908607165291 
517	 0,211129042743999 
518	 0,211848229526222 
519	 0,212257078535709 
520	 0,212394677419937 
521	 0,213464333658053 
522	 0,214122188915417 
523	 0,21351808078947 
524	 0,213558245600659 
525	 0,214134647904007 
526	 0,214322587643733 
527	 0,214375466980591 
528	 0,214336862113312 
529	 0,214178341665678 
530	 0,213818161294639 
531	 0,213173921342982 
532	 0,213170351195914 
533	 0,213677697744219 
534	 0,213558511856021 
535	 0,213537677303864 
536	 0,213962881963971 
537	 0,213991224936106 
538	 0,213863410022264 
539	 0,214240785319187 
540	 0,214487573100362 
541	 0,214478454971572 
542	 0,214517748488996 
543	 0,214902764326234 
544	 0,215849736268662 
545	 0,216026362427644 
546	 0,215716801809703 
547	 0,216675256972174 
548	 0,216900593675473 
549	 0,215756160271008 
550	 0,216042793207425 
551	 0,217047669472161 
552	 0,217179619676355 
553	 0,21734868008964 
554	 0,217553180254022 
555	 0,216822103079426 
556	 0,21623622718128 
557	 0,216657306154324 
558	 0,2169969038537 
559	 0,217015973414633 
560	 0,216636336005648 
561	 0,216215965104338 
562	 0,216010681420504 
563	 0,216482629575959 
564	 0,216882601851149 
565	 0,216182893522904 
566	 0,21623977237378 
567	 0,217115367115964 
568	 0,217257163582205 
569	 0,217269088439358 
570	 0,217567856555354 
571	 0,217797223598168 
572	 0,218214871756849 
573	 0,219532513253195 
574	 0,220606456655929 
575	 0,221094609107677 
576	 0,221690629874781 
577	 0,222234934232389 
578	 0,222511761770326 
579	 0,222966271871192 
580	 0,223702777542618 
581	 0,22468117239413 
582	 0,225759763819901 
583	 0,226727829958331 
584	 0,22675983330579 
585	 0,226505577958478 
586	 0,227340031879079 
587	 0,227428501429485 
588	 0,226661605495557 
589	 0,227073977330302 
590	 0,227908137190919 
591	 0,228376865482754 
592	 0,228869655414204 
593	 0,229297266777233 
594	 0,229232103535996 
595	 0,229267164384814 
596	 0,229686267338834 
597	 0,230275113412989 
598	 0,230897074860519 
599	 0,23141760081204 
600	 0,231367309900597 
601	 0,230815939699675 
602	 0,230525792473374 
603	 0,230526309991188 
604	 0,230759764156949 
605	 0,230463977338308 
606	 0,229650846321441 
607	 0,228593366801053 
608	 0,227927849166813 
609	 0,227896466262688 
610	 0,227985665872292 
611	 0,228257637185645 
612	 0,228846603501057 
613	 0,228026775479841 
614	 0,226238236706582 
615	 0,226282729179764 
616	 0,227022922100108 
617	 0,227607506989284 
618	 0,227370174243581 
619	 0,226761134282757 
620	 0,22692993458953 
621	 0,226851435812057 
622	 0,226362559049536 
623	 0,226287516630415 
624	 0,226418126138464 
625	 0,226484490537956 
626	 0,226331443682557 
627	 0,226143310399276 
628	 0,226613680930295 
629	 0,226889203732073 
630	 0,226642493845989 
631	 0,226935506141991 
632	 0,227557009999625 
633	 0,227972895310386 
634	 0,228246044816604 
635	 0,228452259307772 
636	 0,228884356661198 
637	 0,229381317540491 
638	 0,229798380810728 
639	 0,230134045034955 
640	 0,230591143294806 
641	 0,231771687095093 
642	 0,232564695406744 
643	 0,232611153545058 
644	 0,232826384923004 
645	 0,233208527450831 
646	 0,233642625152048 
647	 0,233610566298293 
648	 0,233091388220756 
649	 0,232533394606275 
650	 0,231932698777291 
651	 0,231316432184178 
652	 0,23084456316449 
653	 0,23047976261861 
654	 0,230108703963706 
655	 0,229729316973846 
656	 0,229252008748729 
657	 0,228354221559514 
658	 0,227302436290329 
659	 0,226387343094381 
660	 0,225294782526937 
661	 0,224214863010396 
662	 0,223914700355242 
663	 0,223312684997301 
664	 0,222017274953963 
665	 0,221453781141537 
666	 0,221377535945057 
667	 0,221167447312119 
668	 0,220563493576675 
669	 0,219727825040908 
670	 0,219705628527401 
671	 0,219697693463347 
672	 0,219117413918436 
673	 0,219166872471577 
674	 0,219700766628186 
675	 0,219962779248405 
676	 0,219843884725982 
677	 0,21939668362906 
678	 0,21926257058349 
679	 0,219585270566842 
680	 0,220443629592014 
681	 0,220942060268882 
682	 0,221062246296792 
683	 0,22153063995596 
684	 0,22207063663992 
685	 0,222550500072217 
686	 0,223085122935249 
687	 0,22411995281099 
688	 0,226443344848105 
689	 0,228423383654473 
690	 0,229933857458111 
691	 0,232782923061283 
692	 0,236264898229632 
693	 0,239727479671091 
694	 0,244073957021893 
695	 0,249160505889884 
696	 0,254183382937405 
697	 0,259791304298242 
698	 0,266184463557663 
699	 0,27285279164111 
700	 0,279866543897828 
701	 0,287390895411704 
702	 0,294853650246617 
703	 0,30221229392106 
704	 0,310046411880984 
705	 0,317499799888714 
706	 0,324078897194366 
707	 0,330628414450115 
708	 0,337191048781183 
709	 0,343606010940421 
710	 0,34955023518815 
711	 0,355034439721576 
712	 0,360614120192877 
713	 0,365951143260745 
714	 0,370720197464576 
715	 0,375242288718093 
716	 0,379476971803239 
717	 0,383152004919043 
718	 0,386628733928657 
719	 0,389989573626804 
720	 0,392605394250692 
721	 0,39518856715221 
722	 0,398701818293697 
723	 0,401489493938255 
724	 0,403375583232988 
725	 0,405267969315083 
726	 0,40691549738975 
727	 0,408232760099496 
728	 0,409676723795725 
729	 0,411263297500439 
730	 0,412917238774544 
731	 0,414328636373835 
732	 0,415419288960958 
733	 0,416381433715428 
734	 0,41731701660389 
735	 0,418282897812669 
736	 0,418834984589461 
737	 0,419265260982088 
738	 0,42058350934423 
739	 0,421371043429275 
740	 0,421330962072042 
741	 0,422105819345928 
742	 0,423060640109388 
743	 0,423323581098353 
744	 0,423547942479092 
745	 0,423936515557428 
746	 0,424676134277716 
747	 0,425210808156278 
748	 0,42532498303675 
749	 0,425867184562489 
750	 0,426486905923775 
751	 0,426489843963329 
752	 0,426632663067576 
753	 0,427159323671623 
754	 0,428206099604186 
755	 0,428885085659724 
756	 0,42864073464718 
757	 0,428723221623143 
758	 0,429261979560812 
759	 0,430107736665552 
760	 0,430849030646093 
761	 0,43130215377686 
762	 0,431442646812689 
763	 0,431717633495018 
764	 0,432515459682356 
765	 0,433178175313328 
766	 0,433629323026443 
767	 0,434054977728188 
768	 0,434329095292863 
769	 0,434449948354052 
770	 0,434663327808596 
771	 0,434911863819568 
772	 0,435102636382134 
773	 0,435425077603236 
774	 0,435813288569229 
775	 0,435965063084071 
776	 0,435989452854282 
777	 0,435987657960674 
778	 0,436278884211189 
779	 0,436514342191413 
780	 0,436139625056353 
781	 0,435749725077235 
782	 0,43561532256789 
783	 0,436066254872325 
784	 0,436433923368132 
785	 0,436305062958304 
786	 0,436249766043569 
787	 0,436325637930773 
788	 0,436486437610211 
789	 0,436649604862464 
790	 0,436792817121364 
791	 0,436950470296752 
792	 0,437180726777809 
793	 0,437522275556745 
794	 0,437888765916312 
795	 0,438225940521307 
796	 0,438464103360156 
797	 0,438687765683296 
798	 0,438899486500686 
799	 0,438905105577253 
800	 0,439123984729961 
801	 0,43989429912914 
802	 0,440214941469462 
803	 0,44009948314661 
804	 0,440014642751165 
805	 0,440354054401901 
806	 0,441120121468392 
807	 0,441289324585394 
808	 0,441327517509347 
809	 0,441785406979207 
810	 0,441918610328342 
811	 0,441839254726255 
812	 0,442328981123788 
813	 0,442549200210739 
814	 0,442243827076771 
815	 0,442150654610796 
816	 0,442240952717062 
817	 0,442397771621309 
818	 0,442519548910796 
819	 0,442690581834453 
820	 0,443272639616459 
821	 0,443779525756068 
822	 0,444007222663988 
823	 0,444338540798944 
824	 0,444622738692015 
825	 0,444630805884132 
826	 0,444978223080495 
827	 0,445602350685416 
828	 0,445787075155523 
829	 0,446102794062944 
830	 0,446734996495679 
831	 0,446822297350919 
832	 0,446816328349883 
833	 0,447442740170949 
834	 0,447859650432189 
835	 0,447998938354114 
836	 0,448386547277447 
837	 0,448589742633624 
838	 0,448495214473875 
839	 0,449080999239102 
840	 0,449678844200498 
841	 0,449219937240262 
842	 0,449127786256572 
843	 0,449482057179222 
844	 0,449238148415216 
845	 0,449200223412877 
846	 0,449681624677051 
847	 0,449593544927139 
848	 0,449305781209643 
849	 0,449503080124469 
850	 0,449664482261672 
851	 0,449564254223373 
852	 0,448929058635084 
853	 0,448144625381846 
854	 0,447561874331718 
855	 0,447822810574356 
856	 0,44844490075944 
857	 0,448675212909281 
858	 0,448711442972533 
859	 0,448545926496673 
860	 0,4479824931216 
861	 0,44780905860859 
862	 0,44833345349018 
863	 0,448555738105661 
864	 0,448581084852152 
865	 0,44869368366198 
866	 0,448980476241844 
867	 0,449524285424444 
868	 0,450551758929281 
869	 0,451178491324013 
870	 0,451141685346035 
871	 0,45176955822676 
872	 0,452543387846583 
873	 0,45271522389505 
874	 0,453079008404319 
875	 0,453687813186971 
876	 0,454141379633564 
877	 0,454846195270435 
878	 0,455812887366291 
879	 0,456156276321552 
880	 0,456296982129548 
881	 0,456744263251364 
882	 0,456949887480703 
883	 0,457009564749984 
884	 0,45740741226108 
885	 0,457996863196282 
886	 0,458608050424731 
887	 0,458626921002548 
888	 0,458711301074414 
889	 0,459455455638516 
890	 0,459944517416249 
891	 0,460037178390858 
892	 0,459794107522536 
893	 0,459651938542688 
894	 0,459754225377649 
895	 0,45999116904939 
896	 0,459875473385114 
897	 0,459101403867939 
898	 0,458442368960063 
899	 0,45826300740068 
900	 0,458965472269811 
901	 0,459271475410139 
902	 0,458967476877925 
903	 0,458828479303408 
904	 0,458950552083691 
905	 0,459271394167703 
906	 0,458805003730143 
907	 0,458212244710445 
908	 0,458581721907571 
909	 0,458936963818553 
910	 0,459105963406933 
911	 0,459425248405167 
912	 0,459302236462355 
913	 0,45863112025756 
914	 0,45849639397352 
915	 0,458734299903342 
916	 0,459023003473584 
917	 0,458844884305631 
918	 0,458723431893959 
919	 0,460483886459849 
920	 0,460887081131288 
921	 0,459376640619903 
922	 0,459035054216053 
923	 0,459858308455384 
924	 0,461515390677777 
925	 0,461986452148848 
926	 0,46158047557812 
927	 0,461520898512415 
928	 0,461445179517507 
929	 0,461407898993118 
930	 0,461792816108681 
931	 0,462234222123145 
932	 0,462491787464734 
933	 0,462612351334717 
934	 0,462599797064634 
935	 0,462474330885715 
936	 0,462841392453203 
937	 0,463299159774755 
938	 0,462262299505523 
939	 0,461613835407435 
940	 0,462004860865638 
941	 0,462697612183842 
942	 0,462890046852528 
943	 0,46205638056884 
944	 0,462076527106698 
945	 0,462624276686679 
946	 0,462520222223563 
947	 0,461927367603378 
948	 0,461036113029919 
949	 0,4605505805006 
950	 0,459362032599219 
951	 0,45730782860381 
952	 0,457537688656984 
953	 0,458562756131697 
954	 0,458212930037975 
955	 0,457130391312965 
956	 0,455865092264749 
957	 0,455537357443876 
958	 0,454886467691223 
959	 0,453924268065191 
960	 0,454698637252138 
961	 0,455599523925035 
962	 0,455390794601505 
963	 0,455145248961452 
964	 0,454805905788013 
965	 0,454083065369611 
966	 0,453430913923875 
967	 0,453277003187511 
968	 0,454740295325173 
969	 0,454747795166698 
970	 0,452562398404143 
971	 0,451968862622957 
972	 0,452402311980924 
973	 0,453059077111604 
974	 0,453697011236159 
975	 0,453744628712577 
976	 0,452322076058803 
977	 0,452848557653512 
978	 0,454984201978088 
979	 0,453897466267149 
980	 0,453482761919704 
981	 0,455215402869524 
982	 0,455683201708642 
983	 0,45553201079854 
984	 0,45571825978965 
985	 0,456276201817567 
986	 0,457025525672594 
987	 0,457572984383639 
988	 0,457723345061353 
989	 0,457791797049028 
990	 0,459243033832957 
991	 0,459915378541102 
992	 0,459113316127426 
993	 0,459831032943894 
994	 0,461791812577129 
995	 0,464121597830119 
996	 0,462819183776115 
997	 0,460062066529149 
998	 0,461490283395094 
999	 0,463450345810754 
1000	 0,465099060200293 
1001	 0,467600933993721 
1002	 0,467476939276457 
1003	 0,464085930981607 
1004	 0,464311949482428 
1005	 0,466194515002745 
1006	 0,467236541576546 
1007	 0,467976763897305 
1008	 0,469094659556115 
1009	 0,471793974351795 
1010	 0,470992763911319 
1011	 0,467132977288791 
1012	 0,465863180623098 
1013	 0,467427266213055 
1014	 0,470943235202752 
1015	 0,471209035736544 
1016	 0,469315932262531 
1017	 0,46695343106842 
1018	 0,467418696828053 
1019	 0,470024014711597 
1020	 0,472846433676023 
1021	 0,473457752309122 
1022	 0,472584433265141 
1023	 0,474469082252164 
1024	 0,474415225778044 
1025	 0,472226901228897 
1026	 0,473829139106446 
1027	 0,478559167029438 
1028	 0,484552163515401 
1029	 0,48337466111971 
1030	 0,480452075667626 
1031	 0,482836550267691 
1032	 0,483534909024146 
1033	 0,48250189461148 
1034	 0,482206781949182 
1035	 0,483330803019386 
1036	 0,484632382655824 
1037	 0,480630267663428 
1038	 0,478577185542294 
1039	 0,480587452063985 
1040	 0,479513269050641 
1041	 0,474087773698914 
1042	 0,465633923971195 
1043	 0,46913038087293 
1044	 0,477387359030854 
1045	 0,477827450825456 
1046	 0,479137440105463 
1047	 0,483434625927197 
1048	 0,491326661163509 
1049	 0,495654330781226 
1050	 0,494724564977359 
1051	 0,490984672229524 
1052	 0,485224523582833 
1053	 0,479550672270503 
1054	 0,481911484774179 
1055	 0,485842730130238 
1056	 0,485486301324336 
1057	 0,485890849079829 
1058	 0,485508678429003 
1059	 0,481700046125724 
1060	 0,483905655332554 
1061	 0,487913314093468 
1062	 0,479509559096112 
1063	 0,478512078542607 
1064	 0,486414959893469 
1065	 0,485440107496931 
1066	 0,485481139539293 
1067	 0,487857639348527 
1068	 0,4741153352375 
1069	 0,470915372680146 
1070	 0,494054993528012 
1071	 0,493837974661835 
1072	 0,488432674456364 
1073	 0,502831059216604 
1074	 0,507470725906482 
1075	 0,500678090467779 
