Wavelength	SCORFF200401.asd
325	 0,192484281118376 
326	 0,212250304971028 
327	 0,156744116005705 
328	 7,52846177585626E-02 
329	 0,155430007904319 
330	 0,251323029903782 
331	 0,259411712968198 
332	 0,123494046147603 
333	-8,25861553428315E-03 
334	 0,100977630257726 
335	 0,179313654481064 
336	 0,131024662445427 
337	 0,133586609772311 
338	 0,096038182453145 
339	-5,77049844335727E-02 
340	-2,41271093672254E-02 
341	 9,49738795969323E-02 
342	 3,78008343792374E-02 
343	 3,93983561689956E-02 
344	 0,122640319226014 
345	 9,52318768168605E-02 
346	 5,58792358155575E-02 
347	 0,102019664682995 
348	 0,100579355814555 
349	 6,50152891136912E-02 
350	 8,00264304061348E-02 
351	 8,47731016585806E-02 
352	 6,26654000411897E-02 
353	 6,65336410515197E-02 
354	 7,26536903516432E-02 
355	 5,04887934210836E-02 
356	 4,53178604795425E-02 
357	 6,29560802528602E-02 
358	 9,45806008413027E-02 
359	 9,06675592049731E-02 
360	 3,49227912485509E-02 
361	-1,32599228782889E-02 
362	-2,31169908730525E-02 
363	 3,23998415572657E-02 
364	 6,19475832337472E-02 
365	 6,03095713999938E-02 
366	 8,12725567890946E-02 
367	 9,16470443713347E-02 
368	 7,37128254053416E-02 
369	 4,85621752437896E-02 
370	 2,97989649835808E-02 
371	 3,95350067647748E-02 
372	 4,74888619375892E-02 
373	 4,65922274926403E-02 
374	 5,07142590145303E-02 
375	 0,04162284826169 
376	 9,94676469012072E-03 
377	 1,28285807031894E-02 
378	 0,040555110176835 
379	 5,62159330814949E-02 
380	 6,24697720482104E-02 
381	 5,93807782767806E-02 
382	 5,45182857940053E-02 
383	 4,77964691535754E-02 
384	 3,78991966437629E-02 
385	 1,79761019291112E-02 
386	 2,55825785514512E-04 
387	 1,56857183679186E-02 
388	 4,07244810693101E-02 
389	 0,05707467522393 
390	 0,032921631453481 
391	 4,65477358467976E-03 
392	 1,99560025615402E-02 
393	 2,42446318490719E-02 
394	 1,56901512492669E-02 
395	 0,026178268868376 
396	 3,11542543304773E-02 
397	 2,22569915125143E-02 
398	 3,03511797273577E-02 
399	 4,33947935626074E-02 
400	 3,99168102092065E-02 
401	 3,35514972260433E-02 
402	 2,84073783351138E-02 
403	 2,31148124032645E-02 
404	 2,62055695360205E-02 
405	 4,06798223656865E-02 
406	 4,06903151607788E-02 
407	 3,17363954266028E-02 
408	 3,14778051459834E-02 
409	 3,56819250185648E-02 
410	 4,10167831766288E-02 
411	 3,89459809023648E-02 
412	 3,07125406076834E-02 
413	 1,89373934677756E-02 
414	 2,53697478666093E-02 
415	 4,18364242816941E-02 
416	 3,97092240389687E-02 
417	 3,25861732458284E-02 
418	 2,73352380559761E-02 
419	 2,92771278863124E-02 
420	 3,30820325646785E-02 
421	 3,14182179891236E-02 
422	 2,90511523149267E-02 
423	 2,76856339024718E-02 
424	 2,91381322758198E-02 
425	 3,01857312527215E-02 
426	 0,029043077688413 
427	 0,028181807953386 
428	 2,76637233964663E-02 
429	 0,026816809902588 
430	 2,70615149858573E-02 
431	 0,028568275297501 
432	 3,01266415234669E-02 
433	 3,19379558736261E-02 
434	 3,40130450181267E-02 
435	 3,29584262410515E-02 
436	 3,03777575350658E-02 
437	 3,18417974871984E-02 
438	 3,26640957508358E-02 
439	 3,10946341928348E-02 
440	 2,82086968746671E-02 
441	 2,73615377157072E-02 
442	 0,032476234502879 
443	 3,42076301791942E-02 
444	 3,19120748670943E-02 
445	 3,18554265937024E-02 
446	 3,12383203245067E-02 
447	 2,88968136707802E-02 
448	 3,00470009233805E-02 
449	 3,26948381805242E-02 
450	 3,18146594957852E-02 
451	 3,15936103679063E-02 
452	 3,29578458596708E-02 
453	 3,43218692421213E-02 
454	 0,034695837254041 
455	 3,32851107597218E-02 
456	 3,06352912734071E-02 
457	 2,87491189059994E-02 
458	 3,26749252373715E-02 
459	 3,49146943061952E-02 
460	 3,29439912706448E-02 
461	 3,31673195685444E-02 
462	 0,034007385433076 
463	 3,25754272611235E-02 
464	 3,25127394587926E-02 
465	 3,40236854444668E-02 
466	 3,44729792189757E-02 
467	 3,52077252883494E-02 
468	 3,67710793750164E-02 
469	 3,60794408451132E-02 
470	 3,35287097050146E-02 
471	 0,030168189711989 
472	 0,031065661167318 
473	 3,61564478236569E-02 
474	 3,68468016279017E-02 
475	 0,034561191133301 
476	 3,14189285451107E-02 
477	 3,18797523398598E-02 
478	 3,49610639253064E-02 
479	 3,53475532268323E-02 
480	 3,43937667916465E-02 
481	 3,30924698703277E-02 
482	 3,42676934126728E-02 
483	 0,03597853662523 
484	 3,49652297588695E-02 
485	 3,41106327246398E-02 
486	 3,38221292574872E-02 
487	 3,20679310481231E-02 
488	 3,22903393444654E-02 
489	 3,65249956597581E-02 
490	 3,73621320573131E-02 
491	 3,55373192119715E-02 
492	 3,56139819066494E-02 
493	 3,52735172577874E-02 
494	 3,42528855380482E-02 
495	 3,49285053401832E-02 
496	 3,56858772060316E-02 
497	 3,45761479072124E-02 
498	 3,42518684708968E-02 
499	 3,49565158050419E-02 
500	 3,55901614027299E-02 
501	 3,58787217631514E-02 
502	 3,56899312273308E-02 
503	 3,54301587655724E-02 
504	 0,035545031962668 
505	 3,67329172870403E-02 
506	 3,75291715612518E-02 
507	 3,74198784876468E-02 
508	 3,63253773808583E-02 
509	 3,55114978453836E-02 
510	 3,60651247745677E-02 
511	 3,67822335059809E-02 
512	 0,037395179260006 
513	 0,037802740278933 
514	 3,87374596003253E-02 
515	 4,01042458699153E-02 
516	 3,92183243381242E-02 
517	 3,76810772317754E-02 
518	 3,80456785074241E-02 
519	 3,82683034494925E-02 
520	 3,82772673867649E-02 
521	 3,99146768683299E-02 
522	 4,07818708451833E-02 
523	 3,93608698192146E-02 
524	 3,88888624155412E-02 
525	 3,97301677102777E-02 
526	 4,18750079763135E-02 
527	 4,18925733379461E-02 
528	 3,94340957456849E-02 
529	 4,00036413273235E-02 
530	 4,15166429070146E-02 
531	 4,11488319692233E-02 
532	 4,04610010717994E-02 
533	 4,00516319088185E-02 
534	 4,07893042322151E-02 
535	 4,11375486171361E-02 
536	 4,03326461650333E-02 
537	 0,040141773248097 
538	 4,04683933908116E-02 
539	 4,06296674971495E-02 
540	 0,041324621286951 
541	 4,24274031011381E-02 
542	 4,26313177854966E-02 
543	 4,20940010256683E-02 
544	 4,11281737236999E-02 
545	 4,16345577532323E-02 
546	 4,31377472595587E-02 
547	 4,32354196998211E-02 
548	 4,28547854557303E-02 
549	 0,042539184929539 
550	 4,28628229854576E-02 
551	 4,36275188193345E-02 
552	 4,44409740501162E-02 
553	 4,47591153821986E-02 
554	 4,45472694011861E-02 
555	 4,44173514931932E-02 
556	 0,044549636379984 
557	 4,50139293174203E-02 
558	 4,48410121351159E-02 
559	 4,43072938567586E-02 
560	 4,45991096764705E-02 
561	 4,46348518307145E-02 
562	 4,41548829103054E-02 
563	 0,044364126379594 
564	 4,46593048387043E-02 
565	 4,41045191921964E-02 
566	 4,45518822827691E-02 
567	 0,045864442927828 
568	 4,58885518380669E-02 
569	 4,56265163740022E-02 
570	 4,57912343795202E-02 
571	 4,60253628414765E-02 
572	 4,63914657918121E-02 
573	 4,71300418949462E-02 
574	 4,78818367073919E-02 
575	 4,84158914082782E-02 
576	 4,84746248315455E-02 
577	 4,81024389828246E-02 
578	 4,74042238789322E-02 
579	 4,75564570033284E-02 
580	 4,84388578843168E-02 
581	 4,87623044031843E-02 
582	 4,88954168004181E-02 
583	 4,90577660005819E-02 
584	 4,94014071658737E-02 
585	 4,97837917931447E-02 
586	 4,99667999619722E-02 
587	 4,94689285797432E-02 
588	 4,86471004245585E-02 
589	 4,97006708534078E-02 
590	 5,09672831717128E-02 
591	 5,08534315504308E-02 
592	 5,07934497413362E-02 
593	 0,050967860202875 
594	 0,051064548517445 
595	 5,12727045896922E-02 
596	 5,16346372547552E-02 
597	 5,18785598815986E-02 
598	 5,19558304855064E-02 
599	 5,18446131917949E-02 
600	 0,051699442664413 
601	 5,16444904917658E-02 
602	 5,19891847861061E-02 
603	 5,20105350955867E-02 
604	 5,12692300188527E-02 
605	 5,17350255603473E-02 
606	 5,27555743488551E-02 
607	 5,19152721160499E-02 
608	 5,09989203694071E-02 
609	 5,07011846798126E-02 
610	 5,08629539119381E-02 
611	 5,11430125007797E-02 
612	 5,11360983865581E-02 
613	 5,06852155097285E-02 
614	 5,01512118305804E-02 
615	 5,09268330708398E-02 
616	 5,14707567324191E-02 
617	 5,08438778003244E-02 
618	 5,00350103586622E-02 
619	 4,97189415891162E-02 
620	 5,09906010755395E-02 
621	 5,16791362575286E-02 
622	 5,12852510729904E-02 
623	 5,13342304527672E-02 
624	 5,15926078123906E-02 
625	 5,17283300835523E-02 
626	 5,17227853220961E-02 
627	 5,16446847410199E-02 
628	 5,17229367686202E-02 
629	 5,18290020379528E-02 
630	 5,18818093047224E-02 
631	 5,17849399572025E-02 
632	 5,16804947503832E-02 
633	 5,17896586483643E-02 
634	 5,22569387041255E-02 
635	 5,29714577661347E-02 
636	 5,33898140387623E-02 
637	 0,05342035907135 
638	 0,05306839419435 
639	 5,32100403880941E-02 
640	 5,37861682253132E-02 
641	 5,42138482425324E-02 
642	 5,46037160020918E-02 
643	 5,48907142270898E-02 
644	 5,45557330858561E-02 
645	 5,43163379662997E-02 
646	 5,51447070900236E-02 
647	 5,52892538720386E-02 
648	 5,47234079150666E-02 
649	 5,50183276052488E-02 
650	 5,52930576911314E-02 
651	 5,49699581890021E-02 
652	 5,44371287520467E-02 
653	 5,40179080395148E-02 
654	 5,42900858801755E-02 
655	 5,42221519438867E-02 
656	 5,35865099346247E-02 
657	 5,31579359751281E-02 
658	 0,052848874843016 
659	 5,25077983914167E-02 
660	 5,17166135250965E-02 
661	 0,050849640779532 
662	 5,13305737387044E-02 
663	 5,13762477760432E-02 
664	 5,02941568111264E-02 
665	 0,050135970106065 
666	 5,04739335621536E-02 
667	 5,02713987244944E-02 
668	 5,00860478313047E-02 
669	 5,00139564966609E-02 
670	 4,98992826355367E-02 
671	 4,96457176795205E-02 
672	 4,92418658339048E-02 
673	 4,94740574552985E-02 
674	 5,00916457368425E-02 
675	 5,01965478636122E-02 
676	 5,01948829454198E-02 
677	 5,01833100611978E-02 
678	 4,98578030606057E-02 
679	 4,98352707553194E-02 
680	 5,08365138108893E-02 
681	 5,12507407803346E-02 
682	 0,051085318033929 
683	 5,17111571023239E-02 
684	 5,23056234799389E-02 
685	 5,24416994942494E-02 
686	 5,27767897526821E-02 
687	 5,33591663687435E-02 
688	 5,41084963868963E-02 
689	 5,49962973519928E-02 
690	 0,055948054182164 
691	 5,67009049049713E-02 
692	 5,76615238519485E-02 
693	 5,91939748314601E-02 
694	 6,10130837473814E-02 
695	 6,29849693161795E-02 
696	 6,49588705495863E-02 
697	 6,69150525934429E-02 
698	 6,89353108191727E-02 
699	 0,071515512114393 
700	 7,44503790717937E-02 
701	 7,74225604557709E-02 
702	 8,01637888105476E-02 
703	 8,26915453978142E-02 
704	 8,53749230903141E-02 
705	 8,81238380452483E-02 
706	 9,08554142634783E-02 
707	 9,33730611170632E-02 
708	 9,57901677272746E-02 
709	 9,83865472009354E-02 
710	 0,100712208962001 
711	 0,102696922396835 
712	 0,104699433044733 
713	 0,106627820175679 
714	 0,108388495328286 
715	 0,110121953389224 
716	 0,111781774558607 
717	 0,113209113357472 
718	 0,114414671684665 
719	 0,115416580538926 
720	 0,116192775297539 
721	 0,117249742646466 
722	 0,119211879800164 
723	 0,120433811083548 
724	 0,120793701901608 
725	 0,121346979253407 
726	 0,122056237293976 
727	 0,122880724998276 
728	 0,123548267638023 
729	 0,124045712500281 
730	 0,124403707887575 
731	 0,12501976000759 
732	 0,125886362602481 
733	 0,126412259343533 
734	 0,126738372861005 
735	 0,126999941137238 
736	 0,126959167544636 
737	 0,12698236934887 
738	 0,128156610352858 
739	 0,128809317299981 
740	 0,128472386584484 
741	 0,128509346140309 
742	 0,128770020344356 
743	 0,128950038541536 
744	 0,129086179150306 
745	 0,129242132761972 
746	 0,12965988268562 
747	 0,12985879943195 
748	 0,129657287631055 
749	 0,129745105591715 
750	 0,130052834751801 
751	 0,130339316932965 
752	 0,130656266638953 
753	 0,130974274471843 
754	 0,131200991550069 
755	 0,131345225842374 
756	 0,131425775731186 
757	 0,131505493575866 
758	 0,131691869333605 
759	 0,132176745001236 
760	 0,132670815269115 
761	 0,132999289724713 
762	 0,132906723865605 
763	 0,132781293015623 
764	 0,132995192732247 
765	 0,133333739707675 
766	 0,133632529873906 
767	 0,13353674416345 
768	 0,133664198116397 
769	 0,134159202785603 
770	 0,134290679589956 
771	 0,134271406499149 
772	 0,134422642658312 
773	 0,134611379120362 
774	 0,134813504583557 
775	 0,13507237635381 
776	 0,135146719458819 
777	 0,134940663978563 
778	 0,134719531585944 
779	 0,134669363924801 
780	 0,135000156505476 
781	 0,135332643209421 
782	 0,13552961605774 
783	 0,13552545768636 
784	 0,135619513514035 
785	 0,13594397113288 
786	 0,135787816452941 
787	 0,135505416345901 
788	 0,135913148360959 
789	 0,136083567252647 
790	 0,135931486149528 
791	 0,136338383838384 
792	 0,136737245868672 
793	 0,13669567018548 
794	 0,136833096695882 
795	 0,137157054138929 
796	 0,137503952203655 
797	 0,137524179648993 
798	 0,137236706202223 
799	 0,137380594771986 
800	 0,137643439295487 
801	 0,137711211573216 
802	 0,137914222641548 
803	 0,138231934643055 
804	 0,138509744925347 
805	 0,138574235950785 
806	 0,138422652327036 
807	 0,138405463043685 
808	 0,138705307046121 
809	 0,13943180824158 
810	 0,139460704778118 
811	 0,13897862795315 
812	 0,139193343914393 
813	 0,13947460344287 
814	 0,139560077694206 
815	 0,139474344365387 
816	 0,139431186689478 
817	 0,139665937593115 
818	 0,139401271969666 
819	 0,138931359985238 
820	 0,139740405219197 
821	 0,140159720343474 
822	 0,139575180211639 
823	 0,139587086985292 
824	 0,139931437296686 
825	 0,140065072785017 
826	 0,140313816756038 
827	 0,140606898587051 
828	 0,140454931118965 
829	 0,140698643641912 
830	 0,141542014486887 
831	 0,141190100715781 
832	 0,140452292013538 
833	 0,140675737594241 
834	 0,141749835752429 
835	 0,143035820865303 
836	 0,142625111115615 
837	 0,141893639672158 
838	 0,141667589420894 
839	 0,141988308291855 
840	 0,142270191333364 
841	 0,141686310089196 
842	 0,14161639275855 
843	 0,142073300093616 
844	 0,141872074648888 
845	 0,141689136894794 
846	 0,141863529525652 
847	 0,142061976487944 
848	 0,142065998292613 
849	 0,14163126481162 
850	 0,141751161700402 
851	 0,142267523730901 
852	 0,141717953077185 
853	 0,141449886391015 
854	 0,142070089666082 
855	 0,142379518618862 
856	 0,142375425880744 
857	 0,142248047779391 
858	 0,142200211981005 
859	 0,142179661563557 
860	 0,141739359315677 
861	 0,141624013732661 
862	 0,142078051860853 
863	 0,141896724986979 
864	 0,141623833563066 
865	 0,142109757668789 
866	 0,142513417857096 
867	 0,1427278821937 
868	 0,143164261355679 
869	 0,143093685592447 
870	 0,142342673519527 
871	 0,142096960462742 
872	 0,142191936089824 
873	 0,142287501990292 
874	 0,142673817758138 
875	 0,143223032575601 
876	 0,14345945882934 
877	 0,143619090212346 
878	 0,143795780529809 
879	 0,143964760295402 
880	 0,144108101596192 
881	 0,144196611232368 
882	 0,143981021907378 
883	 0,143728224914386 
884	 0,144238759158068 
885	 0,144864027473499 
886	 0,145305989842867 
887	 0,145460446513627 
888	 0,145306338919198 
889	 0,1448950871086 
890	 0,144986280841623 
891	 0,145222219803283 
892	 0,144418016242799 
893	 0,144330608500265 
894	 0,145165018761738 
895	 0,145166307060521 
896	 0,144797324290911 
897	 0,144446695436759 
898	 0,143649541547518 
899	 0,143103781106744 
900	 0,144113454319218 
901	 0,144933862284018 
902	 0,145070758876729 
903	 0,144847288933009 
904	 0,144606171886731 
905	 0,144538245577013 
906	 0,144180539636731 
907	 0,143922694097436 
908	 0,144368383049639 
909	 0,144708931739975 
910	 0,1448542077363 
911	 0,145301339225681 
912	 0,145298220528058 
913	 0,144616125269742 
914	 0,144016927088352 
915	 0,144169199038776 
916	 0,145582715048955 
917	 0,145590680879636 
918	 0,144591018901083 
919	 0,145050072159202 
920	 0,145557438028307 
921	 0,145664345861645 
922	 0,145619796039586 
923	 0,145211645636656 
924	 0,144475670502909 
925	 0,145612086809494 
926	 0,147363953714467 
927	 0,146924776070862 
928	 0,145755934342163 
929	 0,144707767749885 
930	 0,145306970607419 
931	 0,14575705934029 
932	 0,145182565125967 
933	 0,145579560756094 
934	 0,146082329482421 
935	 0,145385814232025 
936	 0,146042438401608 
937	 0,147444310535809 
938	 0,146112214518249 
939	 0,14588740183136 
940	 0,147563200537981 
941	 0,14718515109358 
942	 0,146202247806121 
943	 0,146094042953199 
944	 0,146313685433197 
945	 0,146583305801492 
946	 0,146509987533991 
947	 0,146727307554962 
948	 0,146982297203999 
949	 0,145782957000323 
950	 0,144151153183368 
951	 0,143035456077077 
952	 0,144160947212468 
953	 0,145573567881167 
954	 0,1448311873398 
955	 0,145151700698382 
956	 0,145988698228449 
957	 0,144106827835788 
958	 0,143012336959413 
959	 0,143584983195772 
960	 0,143680742588525 
961	 0,144164059985615 
962	 0,145461358755189 
963	 0,145179053473658 
964	 0,144146971289574 
965	 0,1441253690893 
966	 0,14373826546289 
967	 0,143089004089881 
968	 0,14346639863315 
969	 0,143795822988342 
970	 0,143741766769549 
971	 0,144336929382049 
972	 0,144275250513423 
973	 0,142589142770537 
974	 0,142366076075236 
975	 0,143637597815251 
976	 0,145497006919716 
977	 0,145897842071345 
978	 0,144533901815003 
979	 0,142500691520236 
980	 0,141850676281575 
981	 0,143692477122871 
982	 0,148007793496428 
983	 0,149813794999542 
984	 0,144928731334636 
985	 0,143874220261742 
986	 0,146592284702182 
987	 0,149036718126778 
988	 0,148750162399622 
989	 0,146310983876089 
990	 0,14712080238327 
991	 0,148382247367729 
992	 0,148623617446268 
993	 0,148280887378636 
994	 0,14843760768053 
995	 0,149961107104334 
996	 0,149657932388167 
997	 0,14835995512605 
998	 0,148855075899545 
999	 0,14891494233505 
1000	 0,148680546988179 
1001	 0,151064020866146 
1002	 0,152152448792965 
1003	 0,150302046297897 
1004	 0,148285200677356 
1005	 0,147595757726724 
1006	 0,149187716642573 
1007	 0,149449027104644 
1008	 0,149525031142792 
1009	 0,152694013552108 
1010	 0,150179910253528 
1011	 0,143396241769279 
1012	 0,144364486176923 
1013	 0,147931615168598 
1014	 0,1516226012419 
1015	 0,155657926000755 
1016	 0,156359130351319 
1017	 0,151759316123143 
1018	 0,153031041957192 
1019	 0,155089805762097 
1020	 0,148231144196106 
1021	 0,147027151225932 
1022	 0,152723268562942 
1023	 0,159547534739072 
1024	 0,159831683632625 
1025	 0,153263125442477 
1026	 0,153523471053389 
1027	 0,153145699208714 
1028	 0,148375052063697 
1029	 0,149996718477641 
1030	 0,155177001184119 
1031	 0,159000030104185 
1032	 0,158418577338674 
1033	 0,156258662236854 
1034	 0,159556357667579 
1035	 0,163271129563611 
1036	 0,164874052215927 
1037	 0,160775294795688 
1038	 0,157732721027038 
1039	 0,157245091420355 
1040	 0,147964511667007 
1041	 0,143039556683681 
1042	 0,152207463767079 
1043	 0,157782440528857 
1044	 0,159377012894162 
1045	 0,159876848999845 
1046	 0,158948846785473 
1047	 0,158382374681779 
1048	 0,162086915341753 
1049	 0,164699434816502 
1050	 0,164184415240755 
1051	 0,158647096285412 
1052	 0,156370465262994 
1053	 0,160693170839317 
1054	 0,164563361128128 
1055	 0,168428844141517 
1056	 0,172247835851434 
1057	 0,170574667628313 
1058	 0,165451253189675 
1059	 0,16138308837347 
1060	 0,164929636259958 
1061	 0,168488791561068 
1062	 0,151492221140411 
1063	 0,146696443323568 
1064	 0,15762002556444 
1065	 0,15764951109467 
1066	 0,159443555476592 
1067	 0,16418558248323 
1068	 0,147381270379542 
1069	 0,141661705215638 
1070	 0,167250466060615 
1071	 0,167647242051337 
1072	 0,161366461347942 
1073	 0,174232387963168 
1074	 0,167634928522388 
1075	 0,153894097765715 
