Wavelength	SCORFF200653.asd
325	 0,468345733088559 
326	 0,281828174240114 
327	 8,47720367434074E-02 
328	-6,64509206014842E-03 
329	 6,36232879374911E-02 
330	 0,164778139946075 
331	 0,211740610903791 
332	 0,175677125359726 
333	 0,129817350252054 
334	 0,229631540778757 
335	 0,260876616884473 
336	 0,16922723855784 
337	 8,34828109970996E-02 
338	-8,04249574695343E-03 
339	-5,37538121862888E-02 
340	 2,72120811475526E-02 
341	 0,133611386708923 
342	 9,21684840683708E-02 
343	 9,74823489472496E-02 
344	 0,162156674032127 
345	 9,59177416424419E-02 
346	 1,23953661392761E-02 
347	 0,031955903053557 
348	 0,049322445784353 
349	 5,59190711576043E-02 
350	 8,61594014071399E-02 
351	 0,101475346947986 
352	 8,62974078949189E-02 
353	 6,93693088918056E-02 
354	 5,42407723032487E-02 
355	 4,33023150071732E-02 
356	 5,08788585996513E-02 
357	 6,42716216654823E-02 
358	 4,21607243793624E-02 
359	 3,78164245778664E-02 
360	 6,54960958836508E-02 
361	 0,043888894374855 
362	 1,58338711164377E-02 
363	 5,70693752829335E-02 
364	 5,15244452856163E-02 
365	 7,48718658716527E-03 
366	 4,89557490477057E-02 
367	 7,83582513257308E-02 
368	 0,041462487305498 
369	 3,02004209755651E-03 
370	-1,29141938834302E-02 
371	 2,72163140669524E-02 
372	 3,07652885983611E-02 
373	-6,24442594098009E-03 
374	 0,019255728432529 
375	 4,50988296951516E-02 
376	 2,92789662849093E-02 
377	 0,035634208308552 
378	 0,054158526475762 
379	 4,50416895425963E-02 
380	 2,91375433153703E-02 
381	 1,87993589517923E-02 
382	 4,39728368201242E-02 
383	 5,60184812140171E-02 
384	 1,56081934335082E-02 
385	 1,03537656443197E-02 
386	 3,73929627787854E-02 
387	 4,82818669092277E-02 
388	 4,81289942703822E-02 
389	 3,92779291905422E-02 
390	 2,88031289681997E-02 
391	 2,22697550619954E-02 
392	 2,61695171291686E-02 
393	 2,50112072860389E-02 
394	 2,01326784234141E-02 
395	 2,74194775416761E-02 
396	 3,13203123350336E-02 
397	 2,56174657980406E-02 
398	 2,34274202342669E-02 
399	 2,40156074485662E-02 
400	 2,37198990034537E-02 
401	 2,65600383701991E-02 
402	 2,96079181093842E-02 
403	 1,82448809936452E-02 
404	 0,013006990057258 
405	 2,53263082601752E-02 
406	 2,21246978126436E-02 
407	 1,24475981062517E-02 
408	 2,45969817994842E-02 
409	 3,18503862034107E-02 
410	 2,81503277254912E-02 
411	 2,51429876938049E-02 
412	 2,00156720559016E-02 
413	 1,04618155413221E-02 
414	 1,38391735524606E-02 
415	 2,52302421972713E-02 
416	 2,59072321677888E-02 
417	 2,28935612069035E-02 
418	 1,89891120815004E-02 
419	 0,012719299960837 
420	 9,38780459451328E-03 
421	 1,56222834075671E-02 
422	 2,01950180989103E-02 
423	 2,18061386226279E-02 
424	 2,71219566526029E-02 
425	 2,74063607424836E-02 
426	 1,88173169116487E-02 
427	 1,51669829915876E-02 
428	 1,66349279772385E-02 
429	 2,01293873427342E-02 
430	 0,020858332037557 
431	 1,85023406124892E-02 
432	 1,94560425075257E-02 
433	 2,10684355076602E-02 
434	 2,09165753783016E-02 
435	 2,23987794859758E-02 
436	 2,44109125079701E-02 
437	 2,27351996673801E-02 
438	 0,021344842845231 
439	 2,13583307658378E-02 
440	 1,86373126712802E-02 
441	 0,016584416498362 
442	 0,019770883401211 
443	 2,15031151050108E-02 
444	 0,021065591585525 
445	 2,20439801591893E-02 
446	 2,28372035986221E-02 
447	 2,22776931646605E-02 
448	 1,87450142729396E-02 
449	 1,57191697869227E-02 
450	 2,00401159437769E-02 
451	 2,27968536516084E-02 
452	 2,19361163686739E-02 
453	 2,24875637096093E-02 
454	 2,17947755262025E-02 
455	 1,74972243983793E-02 
456	 1,44254360663429E-02 
457	 0,013634149074325 
458	 1,51414195442948E-02 
459	 1,63657252238074E-02 
460	 1,63199906405002E-02 
461	 1,71641713818562E-02 
462	 1,83887750175216E-02 
463	 1,91139061776367E-02 
464	 1,72507714499853E-02 
465	 1,37653686413447E-02 
466	 1,34212004970495E-02 
467	 1,51083263967913E-02 
468	 1,76403707122364E-02 
469	 1,79216830757111E-02 
470	 0,016950392252703 
471	 1,76668911243057E-02 
472	 1,83274774619299E-02 
473	 1,85529904480403E-02 
474	 0,019244867480106 
475	 1,95054212402998E-02 
476	 1,84865515462651E-02 
477	 1,77006407666691E-02 
478	 0,017457102761244 
479	 1,78760673398104E-02 
480	 1,71522299679502E-02 
481	 1,48490167901696E-02 
482	 1,42429642290541E-02 
483	 1,49495763741585E-02 
484	 1,58419957057331E-02 
485	 1,70857178400414E-02 
486	 1,81954816730556E-02 
487	 1,76451948102769E-02 
488	 1,68839587155755E-02 
489	 1,70829440894173E-02 
490	 1,82768336256216E-02 
491	 1,94121999183823E-02 
492	 1,81109349419269E-02 
493	 1,65059684115893E-02 
494	 1,56754075411101E-02 
495	 1,67090834415694E-02 
496	 1,82638063733737E-02 
497	 1,87450308626481E-02 
498	 1,81729902621727E-02 
499	 0,01696846957897 
500	 1,62833439302828E-02 
501	 1,62562729253472E-02 
502	 1,68059500892063E-02 
503	 1,63921042432279E-02 
504	 1,57894158867638E-02 
505	 1,67099819431685E-02 
506	 1,76526668884522E-02 
507	 1,79924792509237E-02 
508	 1,72063246771373E-02 
509	 1,62661225128371E-02 
510	 1,60575207619195E-02 
511	 1,58584033983908E-02 
512	 1,59654568381146E-02 
513	 1,76269793564524E-02 
514	 1,88102535332416E-02 
515	 0,018538269983433 
516	 1,69734118214481E-02 
517	 1,54658991802551E-02 
518	 1,57853211313111E-02 
519	 1,64730029874814E-02 
520	 1,70944621049637E-02 
521	 0,017849012451588 
522	 0,017556409133867 
523	 0,01564548890257 
524	 1,54767602834837E-02 
525	 1,65818391763603E-02 
526	 0,016663625032437 
527	 1,67512243364937E-02 
528	 1,70318689949666E-02 
529	 1,68996573233616E-02 
530	 1,67024382603115E-02 
531	 1,68705787807677E-02 
532	 1,64771026879832E-02 
533	 0,015843090253283 
534	 1,66490714456232E-02 
535	 1,73596745855541E-02 
536	 1,71040552196941E-02 
537	 1,67558894904805E-02 
538	 1,64610067445662E-02 
539	 1,62446330038322E-02 
540	 1,60579740366579E-02 
541	 1,59568499299813E-02 
542	 1,62824302921568E-02 
543	 1,64899755014356E-02 
544	 0,016085034147882 
545	 1,62678376120985E-02 
546	 1,69236316151931E-02 
547	 1,71053428213416E-02 
548	 1,68926083205073E-02 
549	 1,64382362839117E-02 
550	 1,65756566032785E-02 
551	 1,71527021971973E-02 
552	 1,78044187117618E-02 
553	 1,80340262599891E-02 
554	 1,77803397511247E-02 
555	 1,75542706655807E-02 
556	 1,73003604326619E-02 
557	 0,016991813163267 
558	 1,69747108472573E-02 
559	 1,71779603104479E-02 
560	 1,73407161023324E-02 
561	 1,71612136969049E-02 
562	 1,66211536304224E-02 
563	 1,65464992668094E-02 
564	 1,65215202042244E-02 
565	 1,58934034277744E-02 
566	 1,59758018715807E-02 
567	 1,67423647841665E-02 
568	 1,68407473474281E-02 
569	 1,70383130544907E-02 
570	 1,77430640248226E-02 
571	 1,74516674423373E-02 
572	 1,65947219858455E-02 
573	 1,65373518931572E-02 
574	 1,68254865869333E-02 
575	 1,72928837565966E-02 
576	 0,017899415782089 
577	 1,79102061220258E-02 
578	 1,65879563929032E-02 
579	 1,65283092113639E-02 
580	 1,77371112131441E-02 
581	 1,83102965982705E-02 
582	 1,82309084670716E-02 
583	 0,017602894228801 
584	 0,017598165676307 
585	 0,01814757217557 
586	 1,88949039028214E-02 
587	 1,88448611169253E-02 
588	 1,81204123296252E-02 
589	 1,89446482538549E-02 
590	 1,95870082943694E-02 
591	 0,018473028397807 
592	 1,84586546554455E-02 
593	 1,93243373383037E-02 
594	 1,89049523485902E-02 
595	 1,83552548915173E-02 
596	 1,81812370214861E-02 
597	 1,80015322185598E-02 
598	 1,81086164874074E-02 
599	 1,90121701934262E-02 
600	 1,91011250537297E-02 
601	 1,83731307421578E-02 
602	 1,88163200610835E-02 
603	 1,91016175153454E-02 
604	 1,82905434822789E-02 
605	 1,85803639559168E-02 
606	 1,94487416443744E-02 
607	 1,87215450805858E-02 
608	 1,78608612842617E-02 
609	 1,74780622838775E-02 
610	 1,77707676794735E-02 
611	 1,80354128396065E-02 
612	 1,73994195960855E-02 
613	 1,67429183987989E-02 
614	 1,65505959459344E-02 
615	 1,76945105525156E-02 
616	 0,018575338555994 
617	 1,81864720263781E-02 
618	 1,74530279514831E-02 
619	 1,70132881527473E-02 
620	 1,78734186559187E-02 
621	 1,84046500233859E-02 
622	 1,81111561430313E-02 
623	 1,74639545308347E-02 
624	 0,017206950231996 
625	 1,80134182986219E-02 
626	 1,82996145938221E-02 
627	 1,79285376887908E-02 
628	 1,75305768257474E-02 
629	 1,73895239632302E-02 
630	 1,76708463883128E-02 
631	 1,82372890398174E-02 
632	 1,85924561348747E-02 
633	 1,79666915459882E-02 
634	 1,76978617513732E-02 
635	 1,81142260839351E-02 
636	 1,88195493331859E-02 
637	 1,91265194050155E-02 
638	 1,85504698439716E-02 
639	 1,85350382760495E-02 
640	 1,91094442043126E-02 
641	 0,019695011252688 
642	 1,99697951334614E-02 
643	 1,98165686116221E-02 
644	 1,96388041854423E-02 
645	 0,019618023319298 
646	 1,99256385204967E-02 
647	 2,01338502089548E-02 
648	 2,01004055388389E-02 
649	 0,019704139330221 
650	 1,96287323362391E-02 
651	 2,02457271127136E-02 
652	 2,05184988262019E-02 
653	 2,02987588737351E-02 
654	 0,019531253721011 
655	 1,94787593423947E-02 
656	 2,02456432216569E-02 
657	 2,00198735709703E-02 
658	 1,92932068410362E-02 
659	 1,87050130705762E-02 
660	 1,83944625971854E-02 
661	 1,82797310856779E-02 
662	 0,01793423222333 
663	 1,77245136715166E-02 
664	 1,77847272104717E-02 
665	 1,76574683156473E-02 
666	 1,75630303017427E-02 
667	 1,79380053831716E-02 
668	 1,80932614587035E-02 
669	 0,017926002397885 
670	 1,79404325881591E-02 
671	 0,01772676181428 
672	 1,70565947954171E-02 
673	 1,73424295708435E-02 
674	 1,82491208072795E-02 
675	 1,84554922621624E-02 
676	 1,83137662466141E-02 
677	 1,79670545050518E-02 
678	 0,017612043229296 
679	 1,75633981419144E-02 
680	 1,81420994854079E-02 
681	 1,84533549573523E-02 
682	 1,83571043711004E-02 
683	 1,81875632714627E-02 
684	 1,80021999811817E-02 
685	 1,79032143464496E-02 
686	 1,82969713965227E-02 
687	 1,88345038372907E-02 
688	 1,88020435295864E-02 
689	 1,89046958686562E-02 
690	 1,93100777189721E-02 
691	 1,96785387519831E-02 
692	 2,02884411032599E-02 
693	 2,13750418036177E-02 
694	 0,022517481551329 
695	 2,36323652397178E-02 
696	 2,46514629816172E-02 
697	 2,62106711675871E-02 
698	 2,84650467581961E-02 
699	 0,030445931058 
700	 3,25891189282118E-02 
701	 3,55600860714435E-02 
702	 3,89740943546857E-02 
703	 4,26175394668408E-02 
704	 4,61661977165386E-02 
705	 4,98677244999707E-02 
706	 5,38481923923335E-02 
707	 5,77836392342748E-02 
708	 6,17416085502358E-02 
709	 0,065932943307235 
710	 7,00976533161018E-02 
711	 0,074089101468279 
712	 7,76432344157781E-02 
713	 8,12286872372902E-02 
714	 8,52392033071383E-02 
715	 8,87473394325007E-02 
716	 9,17887959120714E-02 
717	 9,49693252480151E-02 
718	 9,79824873086364E-02 
719	 0,10068102509691 
720	 0,102879762445178 
721	 0,105079390958407 
722	 0,107929132177311 
723	 0,110207117818406 
724	 0,111844783729135 
725	 0,113698240441222 
726	 0,115460025315235 
727	 0,116927849320181 
728	 0,117981685134256 
729	 0,11901540127126 
730	 0,120780243722241 
731	 0,122119637222205 
732	 0,122851507307067 
733	 0,12388849055921 
734	 0,124906246168205 
735	 0,125606269570743 
736	 0,126203052022005 
737	 0,126892502722027 
738	 0,128165278754582 
739	 0,128868984527014 
740	 0,12873252806011 
741	 0,12898622226123 
742	 0,129492076423152 
743	 0,129966642568324 
744	 0,130415907651806 
745	 0,130857444984922 
746	 0,131401269725943 
747	 0,131848245081472 
748	 0,132113429421936 
749	 0,132415075797812 
750	 0,13276893644025 
751	 0,133154501651967 
752	 0,133562921698872 
753	 0,133961140652519 
754	 0,134273325672317 
755	 0,134488216731497 
756	 0,134614306557801 
757	 0,134758671977238 
758	 0,13503727832332 
759	 0,13565787370371 
760	 0,136150432948703 
761	 0,136385504011258 
762	 0,136625069003158 
763	 0,136833521868463 
764	 0,136984329003269 
765	 0,137408322754174 
766	 0,137893474006326 
767	 0,137676561463978 
768	 0,137729990816438 
769	 0,138284887023213 
770	 0,138207711970692 
771	 0,138049835702927 
772	 0,138552448247337 
773	 0,139094346721851 
774	 0,139486951455054 
775	 0,139666253975352 
776	 0,139621299615013 
777	 0,139404796384645 
778	 0,139359064011775 
779	 0,139465355412625 
780	 0,139627963659428 
781	 0,139733775365374 
782	 0,139804102132273 
783	 0,14003116232248 
784	 0,140420791764394 
785	 0,140885528538005 
786	 0,140691435772704 
787	 0,140241422898209 
788	 0,14041825532303 
789	 0,14074813953711 
790	 0,141082540976493 
791	 0,141442126593347 
792	 0,141572242057286 
793	 0,141337630655957 
794	 0,14154113651994 
795	 0,142018441261628 
796	 0,142129030676187 
797	 0,142137376466168 
798	 0,142156659023226 
799	 0,142362745974857 
800	 0,14247731193411 
801	 0,142272706441831 
802	 0,142447912309875 
803	 0,142900258237232 
804	 0,143023387558865 
805	 0,143157546051849 
806	 0,143405029274941 
807	 0,143669503161998 
808	 0,143927661557053 
809	 0,144158842169085 
810	 0,144330087088734 
811	 0,144490142066784 
812	 0,144776475109554 
813	 0,145129658745624 
814	 0,145498990972054 
815	 0,145765529962648 
816	 0,145981020589266 
817	 0,146213212913787 
818	 0,14605342015801 
819	 0,145814895733576 
820	 0,146767551954332 
821	 0,147280596135041 
822	 0,146786187161733 
823	 0,147081861015724 
824	 0,147730035458258 
825	 0,147945472359981 
826	 0,148305031537816 
827	 0,148749918540399 
828	 0,148636715577333 
829	 0,148861212012728 
830	 0,149716130535685 
831	 0,149816901159169 
832	 0,149479422776642 
833	 0,149341265235896 
834	 0,150028412606808 
835	 0,151219359573417 
836	 0,15139568165038 
837	 0,151055651470292 
838	 0,150622036512821 
839	 0,151018574913603 
840	 0,151720956173549 
841	 0,151839008676604 
842	 0,151711029690327 
843	 0,151505159774292 
844	 0,151446022069592 
845	 0,151754686591422 
846	 0,152414074331786 
847	 0,152430901363946 
848	 0,152090968185818 
849	 0,151963893933194 
850	 0,152026564561447 
851	 0,152178622919776 
852	 0,152059775996198 
853	 0,151869127999785 
854	 0,151798381867967 
855	 0,152350558737342 
856	 0,152976107825593 
857	 0,152870014414832 
858	 0,152782849251099 
859	 0,15280818517042 
860	 0,152578417011322 
861	 0,15256541635537 
862	 0,152966933125332 
863	 0,153259346606674 
864	 0,153699727296592 
865	 0,154667630831979 
866	 0,154652956444754 
867	 0,153877632991098 
868	 0,154155034823885 
869	 0,154428054811323 
870	 0,154337713112117 
871	 0,154826118864368 
872	 0,1554920934248 
873	 0,155774326024267 
874	 0,15631358420147 
875	 0,157052875180138 
876	 0,15748410931516 
877	 0,157669638422052 
878	 0,157711971234639 
879	 0,158078822411787 
880	 0,158478253590641 
881	 0,158571417235977 
882	 0,158802434325183 
883	 0,159151388016126 
884	 0,159315082184956 
885	 0,159550103769336 
886	 0,15990941701683 
887	 0,160148431478301 
888	 0,160441882241065 
889	 0,160964668886422 
890	 0,161715804252224 
891	 0,162343937039839 
892	 0,162133277765242 
893	 0,161657174212914 
894	 0,161380903481789 
895	 0,162484137047104 
896	 0,16289433391015 
897	 0,161221045314858 
898	 0,160643364061059 
899	 0,161233079247773 
900	 0,162203383239934 
901	 0,162744218447794 
902	 0,16263084658607 
903	 0,162198811345021 
904	 0,162109984332672 
905	 0,162660235845111 
906	 0,162740719445737 
907	 0,162373329956271 
908	 0,161806178003772 
909	 0,161451012270255 
910	 0,161553653619521 
911	 0,162535555923327 
912	 0,163065847028506 
913	 0,16260801680575 
914	 0,162152340711884 
915	 0,162290879564533 
916	 0,163459978343704 
917	 0,163410538968878 
918	 0,162653264929135 
919	 0,163726429370831 
920	 0,16467614017468 
921	 0,16483258101292 
922	 0,164511220466316 
923	 0,163971909356838 
924	 0,163562351033163 
925	 0,164473687946797 
926	 0,165732203392014 
927	 0,165304699450301 
928	 0,164528349680963 
929	 0,163972396779814 
930	 0,164190991329838 
931	 0,16459538242706 
932	 0,164822923748712 
933	 0,165115817841283 
934	 0,165215195136031 
935	 0,164812453581324 
936	 0,165419891259467 
937	 0,166334687625038 
938	 0,16435991654364 
939	 0,163947353950423 
940	 0,166080474036365 
941	 0,166406632805898 
942	 0,165479647535295 
943	 0,164142271557503 
944	 0,163497704976395 
945	 0,163300596002289 
946	 0,16263338505917 
947	 0,16257870817349 
948	 0,162933935262456 
949	 0,161886721505494 
950	 0,160773167632121 
951	 0,160429033924078 
952	 0,160831363899753 
953	 0,160986899657268 
954	 0,159768825672911 
955	 0,158478841965251 
956	 0,157637714492995 
957	 0,157871429180973 
958	 0,157257998237242 
959	 0,155640108128858 
960	 0,155536172997266 
961	 0,156309646473751 
962	 0,157182223847866 
963	 0,156636306061312 
964	 0,155465377827836 
965	 0,155216177608237 
966	 0,15493579689414 
967	 0,154585113163454 
968	 0,154669243536998 
969	 0,154943264619294 
970	 0,155223172133381 
971	 0,155283497532962 
972	 0,154852035459213 
973	 0,153868571139884 
974	 0,154100714399039 
975	 0,155217231482985 
976	 0,156092937415395 
977	 0,155856679224715 
978	 0,155010136132902 
979	 0,15629193378032 
980	 0,157460420929501 
981	 0,157518644051695 
982	 0,157773641514465 
983	 0,15767062471397 
984	 0,156697562901651 
985	 0,15645228338975 
986	 0,157379005770571 
987	 0,159738466975962 
988	 0,160756382995183 
989	 0,160169523507672 
990	 0,160388807195464 
991	 0,160534636120225 
992	 0,160379057824959 
993	 0,161195828507169 
994	 0,162378579167047 
995	 0,163037084225709 
996	 0,160985120267566 
997	 0,158626629978797 
998	 0,161304478800143 
999	 0,163690374113851 
1000	 0,164632420438092 
1001	 0,165775001376076 
1002	 0,167350573092499 
1003	 0,169030420108692 
1004	 0,167977007923263 
1005	 0,166863050851129 
1006	 0,168346029453897 
1007	 0,169885551830422 
1008	 0,170225575530682 
1009	 0,168001624012992 
1010	 0,166863197059592 
1011	 0,167466158718054 
1012	 0,168002229121961 
1013	 0,170297299753972 
1014	 0,173858027817605 
1015	 0,172699610677626 
1016	 0,170392146821985 
1017	 0,170364326739155 
1018	 0,172281268848444 
1019	 0,173670086931358 
1020	 0,171067755296864 
1021	 0,170807420273629 
1022	 0,173561449361882 
1023	 0,177219563624211 
1024	 0,177056209069517 
1025	 0,173064491767676 
1026	 0,173672904774511 
1027	 0,175970278241036 
1028	 0,177830595899866 
1029	 0,179686837518608 
1030	 0,18130134662547 
1031	 0,182318624297722 
1032	 0,180349211968494 
1033	 0,178148636034511 
1034	 0,181957022975793 
1035	 0,185655951770381 
1036	 0,186884220709636 
1037	 0,183757963870321 
1038	 0,182896229483403 
1039	 0,186232699477302 
1040	 0,186616182760226 
1041	 0,183997690026727 
1042	 0,179596763432405 
1043	 0,180018466420367 
1044	 0,183272457924398 
1045	 0,185229224568607 
1046	 0,186796843963487 
1047	 0,189713048773706 
1048	 0,197818387058231 
1049	 0,200946585019402 
1050	 0,196567084880505 
1051	 0,186341932017897 
1052	 0,185056265062381 
1053	 0,195698323746103 
1054	 0,19024762386531 
1055	 0,182941437083305 
1056	 0,187071301219518 
1057	 0,194053954607607 
1058	 0,196770652178731 
1059	 0,187356616383933 
1060	 0,187698749621187 
1061	 0,196202670734003 
1062	 0,198514704264828 
1063	 0,196031521712693 
1064	 0,190214687016547 
1065	 0,184969366994399 
1066	 0,189044944896895 
1067	 0,19963552854127 
1068	 0,17879615583076 
1069	 0,170810731167535 
1070	 0,204161417054207 
1071	 0,20831083352733 
1072	 0,202059993012973 
1073	 0,213446711097086 
1074	 0,207671711815793 
1075	 0,191871413536029 
