Wavelength	SCORFF200806.asd
325	 0,265404861849192 
326	 0,312623894480024 
327	 0,31170184809536 
328	 0,242048964730332 
329	 0,212364427973514 
330	 0,190665690363249 
331	 0,146265093545428 
332	 0,14945032392875 
333	 0,17214012272109 
334	 0,125418386700881 
335	 0,157489324452226 
336	 0,240169716945673 
337	 0,139827534342725 
338	-2,75585164066505E-02 
339	-6,73446534087299E-02 
340	 4,87091454486004E-03 
341	 0,107702580065736 
342	 0,146092802905804 
343	 0,189388466248718 
344	 0,221827715517811 
345	 0,139642759811047 
346	 6,45924686974189E-02 
347	 0,120904909613739 
348	 0,123149744448127 
349	 8,38082538222784E-02 
350	 0,113420876298254 
351	 0,125088119147016 
352	 0,092106302112969 
353	 8,24720233396683E-02 
354	 7,84946392915553E-02 
355	 5,62437773892865E-02 
356	 5,32678712596028E-02 
357	 6,66326904790021E-02 
358	 6,45085847672079E-02 
359	 0,061293195169055 
360	 5,76743764050007E-02 
361	 8,16147173109111E-03 
362	-2,40898526393424E-02 
363	 5,45308963331824E-02 
364	 9,90274465057398E-02 
365	 9,30463899234766E-02 
366	 0,087681851223907 
367	 7,59091204703983E-02 
368	 5,57156270201529E-02 
369	 3,81374373366686E-02 
370	 3,31742656576592E-02 
371	 5,93602059918016E-02 
372	 5,55953987622117E-02 
373	 2,47483287688531E-02 
374	 5,94554209730161E-02 
375	 8,13950624828413E-02 
376	 3,98742553096795E-02 
377	 3,68064415701283E-02 
378	 5,74271180033646E-02 
379	 0,034660291393802 
380	 2,00644387573832E-02 
381	 2,81326118188234E-02 
382	 4,26313705535454E-02 
383	 5,30347922270642E-02 
384	 5,23883676009592E-02 
385	 4,65818044101872E-02 
386	 4,12547823612433E-02 
387	 4,74044456012935E-02 
388	 5,12936722833497E-02 
389	 4,66804187956393E-02 
390	 3,11205417067527E-02 
391	 2,11531639164623E-02 
392	 3,72403657946913E-02 
393	 0,031133269637493 
394	 1,03532596052274E-02 
395	 3,25781829217649E-02 
396	 4,51946280626557E-02 
397	 2,71147774950967E-02 
398	 2,24084851464113E-02 
399	 2,84027991558548E-02 
400	 3,37957380116981E-02 
401	 3,31113945946426E-02 
402	 2,68773078598504E-02 
403	 2,26539544101932E-02 
404	 2,57153608001342E-02 
405	 3,69441418349619E-02 
406	 3,15155354721084E-02 
407	 1,88234336015873E-02 
408	 2,48647510881093E-02 
409	 3,02089933212066E-02 
410	 0,031061718853663 
411	 3,93969440980117E-02 
412	 4,16838427374778E-02 
413	 2,64281957859613E-02 
414	 2,15434089184538E-02 
415	 2,74350488754756E-02 
416	 3,25983059787161E-02 
417	 0,031927235413308 
418	 2,46460485104322E-02 
419	 2,21574037812082E-02 
420	 2,20104598475346E-02 
421	 1,96747412355155E-02 
422	 2,46479116861086E-02 
423	 3,37528144196448E-02 
424	 3,10868747421534E-02 
425	 2,64462764316315E-02 
426	 2,55288170007012E-02 
427	 2,41735410787582E-02 
428	 2,19312576253256E-02 
429	 1,84950569373431E-02 
430	 1,75034122110704E-02 
431	 1,96117951496395E-02 
432	 0,022557809500869 
433	 2,45522051954177E-02 
434	 2,43179922196625E-02 
435	 2,61852335406642E-02 
436	 2,82592973924902E-02 
437	 2,33782704659836E-02 
438	 0,020217104234297 
439	 0,021809812857279 
440	 2,30020651750708E-02 
441	 2,27351470810597E-02 
442	 2,03485173584729E-02 
443	 1,86067881565512E-02 
444	 0,018756976570433 
445	 2,24781434175672E-02 
446	 2,52015027703147E-02 
447	 2,41707956686857E-02 
448	 2,19276485866045E-02 
449	 0,020839247297917 
450	 0,024679757648492 
451	 0,026588251317676 
452	 2,49032420522198E-02 
453	 2,30995543601969E-02 
454	 2,13347163633414E-02 
455	 1,97253355954687E-02 
456	 0,020134691659745 
457	 0,021870103133495 
458	 2,22483737347116E-02 
459	 2,24009837750841E-02 
460	 2,26878676325794E-02 
461	 2,27504780345565E-02 
462	 2,22981601189807E-02 
463	 2,09814298139593E-02 
464	 0,020803374835938 
465	 2,15960109194064E-02 
466	 2,04741619212188E-02 
467	 2,11160083976061E-02 
468	 2,50362498558767E-02 
469	 2,27479030194894E-02 
470	 1,75669657787647E-02 
471	 1,85289009889455E-02 
472	 2,06065993847904E-02 
473	 2,21184628142471E-02 
474	 2,29158132068237E-02 
475	 2,35185969683915E-02 
476	 2,43819115226843E-02 
477	 2,32768359608609E-02 
478	 0,020899901731509 
479	 2,03016668132405E-02 
480	 1,95689685710717E-02 
481	 1,84166155598449E-02 
482	 2,11194955973871E-02 
483	 2,44166856036032E-02 
484	 2,30354508192002E-02 
485	 2,19316959167321E-02 
486	 2,18540759464929E-02 
487	 1,97458902073176E-02 
488	 1,97535385965051E-02 
489	 2,43558254313374E-02 
490	 2,49043558896521E-02 
491	 2,20405951665612E-02 
492	 2,03352766157626E-02 
493	 1,94057135279446E-02 
494	 1,92423799793234E-02 
495	 1,91853987513821E-02 
496	 1,91566247629025E-02 
497	 1,91525949842213E-02 
498	 2,06153378885755E-02 
499	 2,26599455798101E-02 
500	 2,17501435386079E-02 
501	 2,04075266113166E-02 
502	 2,01435339583559E-02 
503	 2,06962487382804E-02 
504	 2,13056891998739E-02 
505	 2,07108689454177E-02 
506	 2,00707743940688E-02 
507	 1,98399838280292E-02 
508	 2,05394782452448E-02 
509	 2,04643787921378E-02 
510	 1,82821357503733E-02 
511	 1,78871909243614E-02 
512	 1,93193991263913E-02 
513	 2,08423168721231E-02 
514	 2,18435824664347E-02 
515	 2,18031877136433E-02 
516	 1,99203800750438E-02 
517	 1,80931556826917E-02 
518	 1,89837572805119E-02 
519	 1,95075868950079E-02 
520	 1,93075878243192E-02 
521	 2,03186289629554E-02 
522	 0,020954942183678 
523	 2,01948510081832E-02 
524	 2,01337971816827E-02 
525	 2,06606500364264E-02 
526	 2,08253463847093E-02 
527	 2,05273989669025E-02 
528	 1,99698881454167E-02 
529	 2,06643511394186E-02 
530	 2,13270886034208E-02 
531	 2,04084314119658E-02 
532	 1,95468554146427E-02 
533	 1,92170533965914E-02 
534	 1,96140040501526E-02 
535	 1,99545478243079E-02 
536	 1,98335036969088E-02 
537	 2,02063405233149E-02 
538	 2,06033175672143E-02 
539	 1,98922783591587E-02 
540	 1,96544924276484E-02 
541	 2,01025740123608E-02 
542	 1,97379618083254E-02 
543	 1,92260458116042E-02 
544	 0,019274703748812 
545	 0,01947111974888 
546	 1,98103973974139E-02 
547	 2,06708109343495E-02 
548	 2,08142943950539E-02 
549	 1,98515448631951E-02 
550	 1,96582231303247E-02 
551	 2,01892472303002E-02 
552	 2,10784227338283E-02 
553	 2,09521192667883E-02 
554	 1,99368745975228E-02 
555	 2,04040794492472E-02 
556	 0,020878016747405 
557	 2,01649026845701E-02 
558	 0,019836582938889 
559	 1,99335295655684E-02 
560	 1,98576433324037E-02 
561	 1,96742201307867E-02 
562	 1,94733970641128E-02 
563	 1,98558682619205E-02 
564	 1,99924097089094E-02 
565	 1,87308284800039E-02 
566	 1,87437036064601E-02 
567	 2,00154268327362E-02 
568	 1,99001232391747E-02 
569	 1,96964074560776E-02 
570	 2,02100504279855E-02 
571	 1,98777218780845E-02 
572	 1,92846265803512E-02 
573	 2,02584368757209E-02 
574	 2,08135256778761E-02 
575	 2,05218782346638E-02 
576	 2,11239733909573E-02 
577	 2,18093690797079E-02 
578	 2,15679121781751E-02 
579	 2,15439623460832E-02 
580	 2,17741094435042E-02 
581	 2,15232049496166E-02 
582	 0,021183455775616 
583	 2,10643762443543E-02 
584	 2,16720104169375E-02 
585	 2,25654454611925E-02 
586	 2,29559873513604E-02 
587	 2,24301321911589E-02 
588	 2,13042212295334E-02 
589	 0,02151355061293 
590	 2,22806673677403E-02 
591	 2,27626729203334E-02 
592	 2,27029239185782E-02 
593	 2,22880574433167E-02 
594	 2,20923844905698E-02 
595	 2,25887029534218E-02 
596	 2,37495094868822E-02 
597	 2,36771668948916E-02 
598	 0,023047695875002 
599	 0,023191449144306 
600	 2,30544518322096E-02 
601	 2,25109139335294E-02 
602	 2,20887656531845E-02 
603	 2,19658163834214E-02 
604	 2,22757473292068E-02 
605	 2,30895580830784E-02 
606	 2,37378325527226E-02 
607	 2,25922909509711E-02 
608	 2,15512021016972E-02 
609	 2,13133623010836E-02 
610	 2,10754891975972E-02 
611	 2,12082552831035E-02 
612	 2,22232457297696E-02 
613	 0,021962162519177 
614	 2,06481030009797E-02 
615	 2,09310351747884E-02 
616	 2,13358211685544E-02 
617	 2,09600115026102E-02 
618	 2,05210685240385E-02 
619	 2,05705704758834E-02 
620	 2,21634992886144E-02 
621	 2,24153126780167E-02 
622	 2,09789357468916E-02 
623	 2,13521422862516E-02 
624	 2,20006625078262E-02 
625	 2,12156182590594E-02 
626	 2,13683772682613E-02 
627	 2,23043257684542E-02 
628	 2,22016469452606E-02 
629	 2,15644779239109E-02 
630	 2,08127162509291E-02 
631	 2,10890496380375E-02 
632	 2,18648977437241E-02 
633	 0,022084575004269 
634	 2,18093560982589E-02 
635	 2,13975887915841E-02 
636	 2,23984870108885E-02 
637	 2,31771168073387E-02 
638	 2,24318858878196E-02 
639	 2,24554644123204E-02 
640	 2,32723506475421E-02 
641	 2,39637317382262E-02 
642	 2,40924953292186E-02 
643	 2,35699038869596E-02 
644	 2,33087177661251E-02 
645	 2,34624232190053E-02 
646	 2,40998224183537E-02 
647	 2,40167551844435E-02 
648	 2,33531594403766E-02 
649	 0,023754024677333 
650	 2,43274496021677E-02 
651	 2,44152659667367E-02 
652	 2,37676450338878E-02 
653	 2,30553063130256E-02 
654	 2,37921712050841E-02 
655	 2,39285239171507E-02 
656	 2,30696204377659E-02 
657	 2,29750835712753E-02 
658	 2,29083298258844E-02 
659	 2,20336505983253E-02 
660	 0,021243992560574 
661	 2,07831219548743E-02 
662	 2,07542911479269E-02 
663	 2,07530965024374E-02 
664	 2,05671779182965E-02 
665	 2,03459625335773E-02 
666	 2,02883367364382E-02 
667	 2,06950895213052E-02 
668	 2,07260662788357E-02 
669	 2,03012051141933E-02 
670	 2,01611497771496E-02 
671	 2,00512483535696E-02 
672	 1,98012843501059E-02 
673	 2,00794161450505E-02 
674	 2,06019308964368E-02 
675	 0,020442742336106 
676	 2,02070539365545E-02 
677	 0,020115413147596 
678	 2,00866383321083E-02 
679	 2,01540670783516E-02 
680	 2,03547971788866E-02 
681	 0,02041578496269 
682	 2,03528603592663E-02 
683	 2,04566745299761E-02 
684	 2,05421366507199E-02 
685	 2,05111908375518E-02 
686	 2,04444032348525E-02 
687	 2,05489348549489E-02 
688	 2,11448298972001E-02 
689	 2,20210942401316E-02 
690	 2,29453074148429E-02 
691	 2,32816598979711E-02 
692	 2,36389506592118E-02 
693	 2,46085381730869E-02 
694	 2,62712269812569E-02 
695	 2,83546354949468E-02 
696	 3,01052455154084E-02 
697	 0,032129482719307 
698	 3,46306286132914E-02 
699	 3,72106422885842E-02 
700	 4,00377974928939E-02 
701	 4,33731271703191E-02 
702	 4,65363628219721E-02 
703	 4,97011440549997E-02 
704	 5,41596902040772E-02 
705	 5,84135836705052E-02 
706	 6,15698830288727E-02 
707	 6,48171420295565E-02 
708	 6,82935028949713E-02 
709	 7,19295424588736E-02 
710	 7,53715670197873E-02 
711	 7,85563734476561E-02 
712	 8,18022849224996E-02 
713	 8,49660286894241E-02 
714	 8,79012689410003E-02 
715	 9,06756069927353E-02 
716	 9,32361823126718E-02 
717	 9,54251619051952E-02 
718	 9,74331672652445E-02 
719	 9,93973449076239E-02 
720	 0,101533940147813 
721	 0,103626475043343 
722	 0,105381736291362 
723	 0,107106139430332 
724	 0,108746480797798 
725	 0,109870045021848 
726	 0,110916465928783 
727	 0,112119342289922 
728	 0,11291600401423 
729	 0,113616640736073 
730	 0,114911152575243 
731	 0,116041854657229 
732	 0,116818084463013 
733	 0,117529598596774 
734	 0,118212654051547 
735	 0,118873714501421 
736	 0,119205345500858 
737	 0,119472866603781 
738	 0,120510465845771 
739	 0,121299448326705 
740	 0,121541878207842 
741	 0,121970577466424 
742	 0,122465632628788 
743	 0,122820268467971 
744	 0,122904469147788 
745	 0,12293738133135 
746	 0,123755036950902 
747	 0,124160988523407 
748	 0,123690286624204 
749	 0,123943861641109 
750	 0,124706576543956 
751	 0,125360691335031 
752	 0,125685499070038 
753	 0,125792917911894 
754	 0,126493048125794 
755	 0,127057156163784 
756	 0,126992740630263 
757	 0,126979473651726 
758	 0,127230003081816 
759	 0,127992977084064 
760	 0,128344035042698 
761	 0,128152102255528 
762	 0,128427945644228 
763	 0,128857190658891 
764	 0,129100218662572 
765	 0,129343797096683 
766	 0,129562707404337 
767	 0,129565780548464 
768	 0,12982979505167 
769	 0,130427768270634 
770	 0,130561159568905 
771	 0,130585804603761 
772	 0,130989631615421 
773	 0,131248182538936 
774	 0,131446707845944 
775	 0,13232872009679 
776	 0,132608988394323 
777	 0,131827373543449 
778	 0,131842299028275 
779	 0,132299752044642 
780	 0,132359045081837 
781	 0,132498728676135 
782	 0,132775868340839 
783	 0,132999410170652 
784	 0,133218490641836 
785	 0,13343433402967 
786	 0,133365843816088 
787	 0,133272933660639 
788	 0,133690023345288 
789	 0,133939078036908 
790	 0,133920918946651 
791	 0,134159926120248 
792	 0,134347335726897 
793	 0,134282762668506 
794	 0,134716588604855 
795	 0,135307104455739 
796	 0,135047670491722 
797	 0,134903291739667 
798	 0,135156578559877 
799	 0,1354768593773 
800	 0,135758828712607 
801	 0,135921254181509 
802	 0,136095975166906 
803	 0,136231330258043 
804	 0,136083292688793 
805	 0,136174030552566 
806	 0,136609625820542 
807	 0,136754780287524 
808	 0,136909803435079 
809	 0,137422386662352 
810	 0,137804334660616 
811	 0,138040683978942 
812	 0,138411633800497 
813	 0,138642408435494 
814	 0,138675892906146 
815	 0,138871641858138 
816	 0,139192617427352 
817	 0,139548108716176 
818	 0,139755744316381 
819	 0,139793233372574 
820	 0,139701314372991 
821	 0,139802436525084 
822	 0,140233682030137 
823	 0,140751678411869 
824	 0,141070442847359 
825	 0,140881571915889 
826	 0,141091411941587 
827	 0,141715077767458 
828	 0,142082299950465 
829	 0,142232829629929 
830	 0,142226570011868 
831	 0,142446799923837 
832	 0,142658036928722 
833	 0,142484578197016 
834	 0,142922801017657 
835	 0,143799850847263 
836	 0,143726540718131 
837	 0,143614287898336 
838	 0,143962411575229 
839	 0,144573606989336 
840	 0,145050042194846 
841	 0,144877343421696 
842	 0,145005554142137 
843	 0,145353756107959 
844	 0,144711217638541 
845	 0,144513050186445 
846	 0,145361956729175 
847	 0,145448637737279 
848	 0,145272315880685 
849	 0,145813288880989 
850	 0,146417119780043 
851	 0,146787492607018 
852	 0,146575656587588 
853	 0,146038258239307 
854	 0,145470731614033 
855	 0,145687501061305 
856	 0,146231316884735 
857	 0,146351659548444 
858	 0,146203028580464 
859	 0,14597293563598 
860	 0,146157299634757 
861	 0,146448980443793 
862	 0,146621652727025 
863	 0,146275099606907 
864	 0,146078042049742 
865	 0,146915803706982 
866	 0,147443349621615 
867	 0,147675662383527 
868	 0,148875331697891 
869	 0,149165625386202 
870	 0,148051374174198 
871	 0,14845848336029 
872	 0,149248650783423 
873	 0,148776948088528 
874	 0,148920587563497 
875	 0,149698011435127 
876	 0,149952360062292 
877	 0,150354656981627 
878	 0,151064362339795 
879	 0,151413765614093 
880	 0,151688634942031 
881	 0,152220952487407 
882	 0,152368210227733 
883	 0,152182885249321 
884	 0,152056042767186 
885	 0,152307103691002 
886	 0,153034440010621 
887	 0,154008223347736 
888	 0,154591106733718 
889	 0,154274895528537 
890	 0,154169154823359 
891	 0,154244820205374 
892	 0,153869810761809 
893	 0,154192060607112 
894	 0,155261166936876 
895	 0,155702005517692 
896	 0,155360972535887 
897	 0,154314255234384 
898	 0,15400495041897 
899	 0,154401398253827 
900	 0,155021758051477 
901	 0,154879401301404 
902	 0,154172494844137 
903	 0,154937539487474 
904	 0,155539744328747 
905	 0,155101863918768 
906	 0,155278186695766 
907	 0,155710261996327 
908	 0,155618059342715 
909	 0,155296863653505 
910	 0,155089671086114 
911	 0,155915358545187 
912	 0,156316366225402 
913	 0,155716146991001 
914	 0,155131611808661 
915	 0,155179548256233 
916	 0,156337712313809 
917	 0,156776021753372 
918	 0,15658701963524 
919	 0,157126377812231 
920	 0,157102835843945 
921	 0,156335665455032 
922	 0,156029265819062 
923	 0,156214291024392 
924	 0,156806772238738 
925	 0,157099300742788 
926	 0,157390467755372 
927	 0,158509707976533 
928	 0,158322495468233 
929	 0,157061702179635 
930	 0,157937661100987 
931	 0,158889557785294 
932	 0,158723784409446 
933	 0,158305738944549 
934	 0,15785614004098 
935	 0,157582483840708 
936	 0,159344711113882 
937	 0,161563962003512 
938	 0,158619310312711 
939	 0,156376970861898 
940	 0,156774895729641 
941	 0,156842703492753 
942	 0,156956965282927 
943	 0,157531064275698 
944	 0,158195852403697 
945	 0,158465844012328 
946	 0,157592200742141 
947	 0,156921100005183 
948	 0,156654540582932 
949	 0,155933409418809 
950	 0,154872266349953 
951	 0,153857912053269 
952	 0,154942580994984 
953	 0,15592295005319 
954	 0,15406685222118 
955	 0,15306152330751 
956	 0,153143488949855 
957	 0,152773270839514 
958	 0,152625193762004 
959	 0,152704998253154 
960	 0,151951434225041 
961	 0,152327562974966 
962	 0,15474531510452 
963	 0,153691890587579 
964	 0,15098589377083 
965	 0,150528216351205 
966	 0,151863774836265 
967	 0,153826874883924 
968	 0,153093097575893 
969	 0,152161117845013 
970	 0,152063979327524 
971	 0,152177038188092 
972	 0,152116356896261 
973	 0,151621445631353 
974	 0,151573803802246 
975	 0,151684817660047 
976	 0,151160141003964 
977	 0,150987978804563 
978	 0,151384339223027 
979	 0,152082359349252 
980	 0,152681688862571 
981	 0,153167585300352 
982	 0,154961157186601 
983	 0,156024470810359 
984	 0,154550002986327 
985	 0,155152080867291 
986	 0,157564727473916 
987	 0,159679790529683 
988	 0,158980502793118 
989	 0,15608338099504 
990	 0,156130702952192 
991	 0,157008211973754 
992	 0,157565906148737 
993	 0,157999382475984 
994	 0,158056675968124 
995	 0,157499628149586 
996	 0,156003912185745 
997	 0,155162932098718 
998	 0,158074900116737 
999	 0,159794457707897 
1000	 0,159626849769104 
1001	 0,160695927683083 
1002	 0,161400361270754 
1003	 0,161326247585258 
1004	 0,162644977930754 
1005	 0,164585480281952 
1006	 0,166073785043473 
1007	 0,165721982687584 
1008	 0,164849123136111 
1009	 0,16622411379291 
1010	 0,166087014126016 
1011	 0,164453982366727 
1012	 0,164325676335868 
1013	 0,166898517579162 
1014	 0,170888095054104 
1015	 0,166998457041078 
1016	 0,162694882634895 
1017	 0,164536221114048 
1018	 0,167473172109752 
1019	 0,170407899118682 
1020	 0,172763884781543 
1021	 0,172516140519733 
1022	 0,170850921321811 
1023	 0,172548249513735 
1024	 0,173001334048806 
1025	 0,171531400554809 
1026	 0,172123205247476 
1027	 0,174558789633038 
1028	 0,177617153567867 
1029	 0,17418568830124 
1030	 0,171420031075704 
1031	 0,177693120800768 
1032	 0,180412546633808 
1033	 0,180590079430631 
1034	 0,185345390319328 
1035	 0,187715240565993 
1036	 0,185789625730536 
1037	 0,178974727073004 
1038	 0,180008202278047 
1039	 0,189806291390908 
1040	 0,179851763531685 
1041	 0,170697878728931 
1042	 0,178734222811737 
1043	 0,179965137709658 
1044	 0,179534619488864 
1045	 0,188021940561522 
1046	 0,187189659421142 
1047	 0,182695174168558 
1048	 0,197763146336899 
1049	 0,202411994876178 
1050	 0,191519434316598 
1051	 0,1814279523238 
1052	 0,176302034468673 
1053	 0,178016221009217 
1054	 0,183402450781534 
1055	 0,186639550303523 
1056	 0,183933070623908 
1057	 0,185851738731563 
1058	 0,188395861068303 
1059	 0,184146987306884 
1060	 0,18514075559417 
1061	 0,188378828546036 
1062	 0,181229503855821 
1063	 0,177881837189817 
1064	 0,182507874183663 
1065	 0,194106297125366 
1066	 0,199784182605145 
1067	 0,193313087993889 
1068	 0,174857350762905 
1069	 0,172193923575613 
1070	 0,199857088907545 
1071	 0,197289228417022 
1072	 0,187770702401393 
1073	 0,202699205230833 
1074	 0,194213133933347 
1075	 0,177357699450247 
