Wavelength	SCORFF200705.asd
325	-0,025289774943548 
326	 0,183300294805327 
327	 0,207642770460001 
328	 2,42360409181382E-02 
329	 8,58383113265002E-02 
330	 0,184457674063226 
331	 0,166019576061417 
332	 8,64532950246969E-02 
333	 0,035055948856386 
334	 0,150189203763621 
335	 0,180575613094154 
336	 0,079571081620262 
337	 7,50582127299264E-02 
338	 7,88074722913761E-02 
339	 1,17641686257068E-02 
340	 6,40380432464708E-02 
341	 0,14688083359587 
342	 4,67224855879255E-02 
343	 2,52522631083528E-02 
344	 0,118437320894957 
345	 0,120497592659884 
346	 9,89204932790781E-02 
347	 0,11991289753192 
348	 0,11358855410845 
349	 9,43262443959076E-02 
350	 0,122208055689982 
351	 0,152662529617511 
352	 0,154627619436026 
353	 0,106462930683932 
354	 4,82421667226628E-02 
355	 2,69106844675797E-02 
356	 0,038268079295854 
357	 6,08235910758643E-02 
358	 4,15196468593255E-02 
359	 4,57436061560712E-02 
360	 9,00401967353409E-02 
361	 6,37179873307099E-02 
362	 2,35912913102337E-02 
363	 7,12573562698053E-02 
364	 7,12116856957567E-02 
365	 2,59903924613581E-02 
366	 4,97071542072835E-02 
367	 7,96857886407814E-02 
368	 7,58679912986564E-02 
369	 4,10278311623603E-02 
370	 7,29523804602542E-03 
371	 3,75804025607885E-02 
372	 6,17372552265503E-02 
373	 6,01135134921825E-02 
374	 3,87324226891683E-02 
375	 2,57305626420013E-02 
376	 3,79781845133479E-02 
377	 3,92058219294862E-02 
378	 3,52539419572212E-02 
379	 5,38323522957624E-02 
380	 5,49818391094851E-02 
381	 3,40229965986224E-02 
382	 3,99419867248466E-02 
383	 5,36069326142768E-02 
384	 0,055411049224157 
385	 4,60522603896279E-02 
386	 3,26835406288715E-02 
387	 3,18407386607177E-02 
388	 0,036815594833781 
389	 4,17935861897768E-02 
390	 3,20158406876507E-02 
391	 2,09612891964766E-02 
392	 2,67420328167923E-02 
393	 3,00571944920179E-02 
394	 3,13087878058546E-02 
395	 4,63740864423311E-02 
396	 5,12490976950263E-02 
397	 3,69244254037681E-02 
398	 2,68567077810324E-02 
399	 2,29933673970603E-02 
400	 2,28881842925914E-02 
401	 0,022822274699983 
402	 2,11779391230905E-02 
403	 1,45384978741564E-02 
404	 1,92068395058176E-02 
405	 4,18648496248693E-02 
406	 3,94447725994377E-02 
407	 2,30825692730913E-02 
408	 2,62702009049246E-02 
409	 3,54100627327091E-02 
410	 4,34168185602736E-02 
411	 3,82726677977531E-02 
412	 2,66226460632446E-02 
413	 1,58979660114752E-02 
414	 2,02228164242865E-02 
415	 3,35181038457803E-02 
416	 3,54132357047563E-02 
417	 3,43174295354578E-02 
418	 3,29780105524751E-02 
419	 2,73784230570902E-02 
420	 2,23686782773993E-02 
421	 2,43139040008261E-02 
422	 0,026621209790261 
423	 0,027896485309262 
424	 2,97642567142399E-02 
425	 2,95578140425205E-02 
426	 2,63960085047109E-02 
427	 2,73274142248469E-02 
428	 2,97220908805382E-02 
429	 2,69346867239811E-02 
430	 2,66874512453959E-02 
431	 2,97432961072333E-02 
432	 2,92150401293978E-02 
433	 2,80614970054298E-02 
434	 2,90349800638493E-02 
435	 2,99521036263349E-02 
436	 0,030048128186474 
437	 2,83081724136536E-02 
438	 2,68027442738215E-02 
439	 2,65177500759166E-02 
440	 0,027402169493695 
441	 0,028136662420169 
442	 0,027115115099124 
443	 2,75277644945891E-02 
444	 2,95834884585838E-02 
445	 3,18016546701462E-02 
446	 3,17127217884177E-02 
447	 2,82651889825117E-02 
448	 2,62821015477305E-02 
449	 2,67075004294216E-02 
450	 3,00200443791278E-02 
451	 3,19015333570968E-02 
452	 3,12032398662895E-02 
453	 3,02953564390731E-02 
454	 2,90521877277621E-02 
455	 2,73524124904476E-02 
456	 2,66487580457143E-02 
457	 2,67846628862391E-02 
458	 2,61730437180903E-02 
459	 2,76318095054549E-02 
460	 3,11755902392464E-02 
461	 2,92274869582515E-02 
462	 2,61035443099756E-02 
463	 2,84170158930972E-02 
464	 2,85988410768205E-02 
465	 2,60347206830532E-02 
466	 2,48831558190822E-02 
467	 2,62100314690718E-02 
468	 3,00568251507698E-02 
469	 3,05756822537264E-02 
470	 2,83657743337714E-02 
471	 2,61409906615248E-02 
472	 2,53757315334205E-02 
473	 2,64658855218966E-02 
474	 2,77285695854876E-02 
475	 2,91912862616834E-02 
476	 3,08705263933581E-02 
477	 3,03271709361806E-02 
478	 2,83309353138435E-02 
479	 2,84223429847531E-02 
480	 2,80914341860678E-02 
481	 2,65164898891456E-02 
482	 2,61527027088457E-02 
483	 2,69430192956033E-02 
484	 2,84219729288647E-02 
485	 2,96557242313406E-02 
486	 3,03378725314724E-02 
487	 0,030681135212594 
488	 3,11864640161778E-02 
489	 3,20488421888047E-02 
490	 3,11763604678991E-02 
491	 0,029283081678754 
492	 2,86587359114268E-02 
493	 2,81428596501834E-02 
494	 0,02767966162496 
495	 2,90092188774993E-02 
496	 2,99383704163159E-02 
497	 2,79775202355532E-02 
498	 2,81161219476573E-02 
499	 3,02477460218181E-02 
500	 0,030813497222657 
501	 2,93853125748399E-02 
502	 2,63817467933753E-02 
503	 2,71424125282889E-02 
504	 0,030341925615094 
505	 3,26419678778471E-02 
506	 3,31926272308049E-02 
507	 0,031982230643561 
508	 3,08451904314293E-02 
509	 2,97751218561674E-02 
510	 2,87843490014527E-02 
511	 2,95924169223222E-02 
512	 3,14559468626756E-02 
513	 3,17903496753544E-02 
514	 3,17668656665574E-02 
515	 3,18116950884236E-02 
516	 3,14953084538021E-02 
517	 3,10481370413302E-02 
518	 3,08097084797849E-02 
519	 3,07581072475632E-02 
520	 3,10636409570086E-02 
521	 3,25017737795958E-02 
522	 3,31870552590616E-02 
523	 3,19594524758571E-02 
524	 3,17403084603878E-02 
525	 3,25442913445482E-02 
526	 3,34419175483152E-02 
527	 0,033604610798869 
528	 3,29860840390757E-02 
529	 0,033478118291695 
530	 3,38935519496126E-02 
531	 3,27577459987084E-02 
532	 3,22347051101838E-02 
533	 3,25891427343283E-02 
534	 3,30022412486185E-02 
535	 3,33242511248771E-02 
536	 3,34232699838203E-02 
537	 3,31976032811368E-02 
538	 3,28640857929625E-02 
539	 3,27868572391789E-02 
540	 3,30056416817125E-02 
541	 3,34792284072001E-02 
542	 3,39894854583896E-02 
543	 3,42034963857967E-02 
544	 3,38573648529829E-02 
545	 3,39498567821295E-02 
546	 3,44131630992922E-02 
547	 3,44777300292039E-02 
548	 3,43000064863332E-02 
549	 3,40579880816926E-02 
550	 3,44787518662254E-02 
551	 3,51593090390101E-02 
552	 3,53547828094498E-02 
553	 3,56081485309765E-02 
554	 3,58350906781501E-02 
555	 3,50600808406509E-02 
556	 3,45202936932728E-02 
557	 3,51959747766958E-02 
558	 3,57833058509594E-02 
559	 3,60370780465148E-02 
560	 0,036045539869062 
561	 0,035712744795394 
562	 3,51368108858894E-02 
563	 0,035032093295267 
564	 3,51038182254527E-02 
565	 3,48716617871814E-02 
566	 3,47977876649191E-02 
567	 3,50519820280953E-02 
568	 3,58280882212169E-02 
569	 3,65866860944107E-02 
570	 3,68689836690472E-02 
571	 3,60971900538161E-02 
572	 3,53182656502355E-02 
573	 3,70976436205701E-02 
574	 3,79740436621673E-02 
575	 0,037131084919183 
576	 3,73755954292671E-02 
577	 3,78980211490231E-02 
578	 3,76021895648193E-02 
579	 3,77706901020353E-02 
580	 3,83600156242163E-02 
581	 3,83786399624129E-02 
582	 3,81022369186548E-02 
583	 3,77641854569247E-02 
584	 3,78602651614524E-02 
585	 0,03834310537744 
586	 3,90461771293689E-02 
587	 3,92563928972678E-02 
588	 0,039036711787208 
589	 3,98335735340696E-02 
590	 4,07027530099064E-02 
591	 4,07050375161391E-02 
592	 4,00261573983519E-02 
593	 3,93129387905005E-02 
594	 4,02654518383589E-02 
595	 4,08532507542348E-02 
596	 4,02773548790315E-02 
597	 0,040090259533352 
598	 4,04070649304541E-02 
599	 4,11827458231911E-02 
600	 4,08915915834851E-02 
601	 3,97301734956417E-02 
602	 4,02928796777499E-02 
603	 4,10273180232173E-02 
604	 4,07277731684376E-02 
605	 4,07888339722225E-02 
606	 4,09935512044335E-02 
607	 4,01954316542582E-02 
608	 3,96140742997133E-02 
609	 3,96775362557905E-02 
610	 3,98603231243951E-02 
611	 4,00856297370873E-02 
612	 4,03160374249124E-02 
613	 4,01212415261581E-02 
614	 3,96032409993159E-02 
615	 3,94044747241544E-02 
616	 3,95409079026592E-02 
617	 3,99320288301045E-02 
618	 0,039660990212689 
619	 3,92765540641426E-02 
620	 4,02133549685013E-02 
621	 4,05583206855461E-02 
622	 3,99152994422339E-02 
623	 3,96483656265299E-02 
624	 3,96203324172031E-02 
625	 3,96221894104238E-02 
626	 4,01768462569994E-02 
627	 4,09369810221348E-02 
628	 4,06691248337715E-02 
629	 0,040156922083458 
630	 3,98790123676123E-02 
631	 4,01851065766117E-02 
632	 4,05157995846787E-02 
633	 0,039873680064778 
634	 3,96658414651359E-02 
635	 0,040157798366468 
636	 4,05934484097027E-02 
637	 4,09829359269076E-02 
638	 4,13402145304049E-02 
639	 4,15495146648412E-02 
640	 4,16646697544205E-02 
641	 4,18814829900105E-02 
642	 4,20285412549403E-02 
643	 4,20491296810366E-02 
644	 4,19294491917598E-02 
645	 4,21544660889413E-02 
646	 0,04334368936846 
647	 4,33545603141532E-02 
648	 4,21940172879685E-02 
649	 4,18334109688685E-02 
650	 4,20236176232992E-02 
651	 4,24763260011837E-02 
652	 4,20897057115768E-02 
653	 4,12544482901769E-02 
654	 4,10700131568453E-02 
655	 4,14033813902738E-02 
656	 4,19484570997978E-02 
657	 4,14263108683116E-02 
658	 4,04674134943937E-02 
659	 3,98184102479896E-02 
660	 3,94135586205057E-02 
661	 3,92170359553087E-02 
662	 3,91768326049213E-02 
663	 3,87312958254769E-02 
664	 0,037804272877611 
665	 3,80844882905197E-02 
666	 3,88509712168254E-02 
667	 3,86921754239337E-02 
668	 3,84351488614157E-02 
669	 3,83419232533934E-02 
670	 0,038623105293215 
671	 3,85595616326881E-02 
672	 3,76935999052098E-02 
673	 3,77727261116913E-02 
674	 3,85341076025564E-02 
675	 3,86338850851523E-02 
676	 3,85877199261845E-02 
677	 3,85229813865673E-02 
678	 3,82050875651056E-02 
679	 3,80599474977364E-02 
680	 3,85884026870545E-02 
681	 0,039308030151948 
682	 3,98418820305261E-02 
683	 3,94080699703955E-02 
684	 3,91209575940722E-02 
685	 3,96254834594409E-02 
686	 4,02480144012447E-02 
687	 4,08637161568254E-02 
688	 4,14390599102589E-02 
689	 4,18479914424527E-02 
690	 4,22001325425578E-02 
691	 4,31235075205567E-02 
692	 4,41482256656746E-02 
693	 4,48588776570268E-02 
694	 4,58466959911163E-02 
695	 4,71116324237492E-02 
696	 0,048340715629908 
697	 4,97650600164589E-02 
698	 5,14721662391823E-02 
699	 5,34141255888072E-02 
700	 5,53719501742015E-02 
701	 5,70869524787726E-02 
702	 5,86891954913368E-02 
703	 6,03329695802304E-02 
704	 6,24449564745498E-02 
705	 6,44403763411174E-02 
706	 6,59709035397219E-02 
707	 0,067453327446489 
708	 6,91360523363212E-02 
709	 7,14089490151928E-02 
710	 7,31513674106994E-02 
711	 7,41666378974468E-02 
712	 0,075356476958772 
713	 7,66188510627494E-02 
714	 7,78169494525595E-02 
715	 7,88808243676649E-02 
716	 7,98863368998152E-02 
717	 8,11067184697149E-02 
718	 8,21381915512579E-02 
719	 8,28733073765138E-02 
720	 8,37669828821841E-02 
721	 8,47625173109352E-02 
722	 8,57359032993905E-02 
723	 0,086227481562971 
724	 8,63835544246023E-02 
725	 8,70595284024023E-02 
726	 0,087868460202072 
727	 8,85414566918719E-02 
728	 8,89557537254855E-02 
729	 8,92761344052178E-02 
730	 8,98284576314477E-02 
731	 9,04252683915844E-02 
732	 9,09674537340446E-02 
733	 9,13492029385421E-02 
734	 9,14836396531923E-02 
735	 9,13415859001287E-02 
736	 9,14408503047588E-02 
737	 9,18458476412795E-02 
738	 0,092553544200976 
739	 0,092724318974841 
740	 9,22284105771143E-02 
741	 9,23550687778762E-02 
742	 9,29734594856597E-02 
743	 9,37827971258947E-02 
744	 0,093991551350928 
745	 9,37448521476318E-02 
746	 0,094148281304276 
747	 9,45269919575205E-02 
748	 9,45406516076783E-02 
749	 9,44058244381664E-02 
750	 9,44365531180384E-02 
751	 9,50790463954256E-02 
752	 0,09537115935093 
753	 9,52270952353692E-02 
754	 9,54417566395716E-02 
755	 9,57124832840345E-02 
756	 9,58111739185475E-02 
757	 9,57991252706216E-02 
758	 9,58278330436628E-02 
759	 9,61870764075447E-02 
760	 9,65408705428757E-02 
761	 9,67659047085718E-02 
762	 9,68740130881188E-02 
763	 9,70005313165019E-02 
764	 9,72706752906996E-02 
765	 9,76337963351336E-02 
766	 9,79343618486353E-02 
767	 9,78060991649427E-02 
768	 9,76453712774353E-02 
769	 9,76314091406933E-02 
770	 9,77210043522224E-02 
771	 9,78998393073485E-02 
772	 9,81494548887301E-02 
773	 9,85126248034723E-02 
774	 0,09888543756987 
775	 9,90038179418778E-02 
776	 9,88434470792603E-02 
777	 9,84989780841545E-02 
778	 9,86783143332532E-02 
779	 9,90991615300869E-02 
780	 9,92301778206525E-02 
781	 9,92420013832962E-02 
782	 9,91646137644164E-02 
783	 9,88945360741772E-02 
784	 9,90400554591193E-02 
785	 0,099857563625547 
786	 9,98994510924691E-02 
787	 9,95288938855254E-02 
788	 9,97719002700651E-02 
789	 9,99538530279405E-02 
790	 0,10000017034327 
791	 0,100467073621902 
792	 0,100692622207736 
793	 0,100228980575602 
794	 0,100310524976698 
795	 0,100748325211335 
796	 0,100694576216319 
797	 0,100512169581163 
798	 0,10039595731125 
799	 0,10073335855156 
800	 0,101030479345826 
801	 0,100847347199167 
802	 0,100978123535382 
803	 0,101370036559136 
804	 0,101518966631627 
805	 0,101579132065557 
806	 0,101619884869435 
807	 0,101749118898151 
808	 0,101983967754978 
809	 0,102313237748523 
810	 0,102371967749699 
811	 0,10222088986884 
812	 0,102226904466006 
813	 0,102386130704287 
814	 0,102645402220177 
815	 0,102674578487613 
816	 0,10248307190771 
817	 0,102142935857899 
818	 0,102406761046503 
819	 0,103115734371014 
820	 0,103291322673795 
821	 0,103199979140383 
822	 0,103036540872424 
823	 0,103289420779591 
824	 0,103596371119901 
825	 0,103437112409718 
826	 0,103698568225782 
827	 0,104237348580265 
828	 0,103913480890924 
829	 0,103605255373683 
830	 0,103737015508612 
831	 0,103813308479583 
832	 0,10390435613413 
833	 0,104167713564655 
834	 0,104789686214618 
835	 0,105487103408652 
836	 0,105237619142789 
837	 0,104935276197153 
838	 0,105050873681732 
839	 0,105108954630911 
840	 0,10518043032872 
841	 0,105428392820787 
842	 0,105507155198578 
843	 0,105383945454403 
844	 0,105225474492478 
845	 0,105295642316739 
846	 0,105622084050832 
847	 0,105205091866831 
848	 0,10479588105717 
849	 0,105582195589615 
850	 0,105914401261784 
851	 0,105543497468943 
852	 0,105048207109294 
853	 0,104946175921746 
854	 0,105414964331258 
855	 0,105433756861855 
856	 0,105196362335867 
857	 0,105130696944629 
858	 0,105420522055678 
859	 0,105811294857847 
860	 0,10532840215045 
861	 0,104791837409218 
862	 0,104677105256529 
863	 0,104989889532649 
864	 0,105389770092135 
865	 0,105441427732098 
866	 0,105874158925969 
867	 0,106504808047323 
868	 0,106325046000187 
869	 0,105819486894827 
870	 0,105315751398179 
871	 0,105208046469781 
872	 0,105417811000238 
873	 0,10578629105472 
874	 0,106411015123124 
875	 0,107040066206148 
876	 0,106983658014477 
877	 0,106786210146463 
878	 0,106780323702938 
879	 0,107362725542838 
880	 0,107983707950257 
881	 0,108022056915202 
882	 0,107719403196416 
883	 0,107399078141965 
884	 0,107772820143505 
885	 0,108004246988799 
886	 0,108037627628991 
887	 0,10932694910596 
888	 0,110309824245977 
889	 0,109562659755154 
890	 0,109035634429372 
891	 0,108909231281969 
892	 0,108679899491053 
893	 0,109044761293345 
894	 0,109902824068674 
895	 0,109941660119614 
896	 0,109490277218589 
897	 0,108894780714103 
898	 0,108357819501412 
899	 0,10830830369242 
900	 0,109425283018695 
901	 0,10974639647096 
902	 0,10909732663464 
903	 0,109237614056697 
904	 0,109363796572202 
905	 0,10907111569918 
906	 0,109317708894745 
907	 0,109589853218707 
908	 0,109024004582167 
909	 0,108497494152983 
910	 0,108384714176436 
911	 0,1090812695918 
912	 0,109975421452636 
913	 0,110538059713034 
914	 0,109623625723511 
915	 0,109057099964561 
916	 0,110778298963573 
917	 0,11085899281847 
918	 0,109634875999201 
919	 0,110021827100828 
920	 0,110561397698104 
921	 0,110626311942019 
922	 0,10952743833177 
923	 0,108702524464477 
924	 0,109355342515908 
925	 0,110788187435746 
926	 0,111772992033192 
927	 0,110414477583402 
928	 0,108872556336835 
929	 0,108249596244213 
930	 0,109944548424699 
931	 0,111438637744693 
932	 0,111369526460089 
933	 0,111835673565572 
934	 0,1122613975125 
935	 0,111695741786592 
936	 0,112454580460973 
937	 0,113865183639887 
938	 0,11250832896383 
939	 0,111574399703227 
940	 0,112005126142431 
941	 0,111792711949843 
942	 0,111504284200875 
943	 0,111712092337564 
944	 0,112090795248016 
945	 0,112314926873385 
946	 0,111883743372664 
947	 0,111738859880036 
948	 0,111954813105047 
949	 0,111750404754902 
950	 0,111254805143854 
951	 0,110745766718169 
952	 0,111527433577384 
953	 0,112245760416519 
954	 0,111226517217882 
955	 0,111040217866084 
956	 0,111730757540577 
957	 0,112110384923854 
958	 0,111381388454393 
959	 0,109835287163562 
960	 0,110107600223664 
961	 0,111585421618937 
962	 0,113384865224903 
963	 0,113136466673197 
964	 0,111871733391785 
965	 0,111699759842326 
966	 0,111468146996388 
967	 0,111155491894194 
968	 0,11143554792583 
969	 0,111738085640646 
970	 0,111876093489897 
971	 0,112557234097871 
972	 0,112084479735491 
973	 0,109348297205532 
974	 0,109748282845227 
975	 0,111976743843746 
976	 0,112024462159444 
977	 0,112012124552146 
978	 0,112193656141744 
979	 0,111586927579993 
980	 0,111133873677775 
981	 0,111496081329851 
982	 0,113702072306171 
983	 0,114802177117541 
984	 0,112242345262776 
985	 0,112691945732256 
986	 0,115434339568555 
987	 0,116735257849277 
988	 0,115141584869479 
989	 0,111936917709956 
990	 0,113778728508924 
991	 0,11475342062286 
992	 0,11258298064215 
993	 0,113586709398429 
994	 0,115767661319078 
995	 0,116456143130039 
996	 0,115202308381398 
997	 0,113880082170652 
998	 0,116328133408213 
999	 0,117723006182542 
1000	 0,117181174959686 
1001	 0,11675766474531 
1002	 0,116906695295917 
1003	 0,117604626281912 
1004	 0,116921220098701 
1005	 0,116221705056954 
1006	 0,116885983544419 
1007	 0,116861185219335 
1008	 0,118091562229881 
1009	 0,124664389315115 
1010	 0,122565242693562 
1011	 0,113448334790372 
1012	 0,115339341719259 
1013	 0,119321024587597 
1014	 0,121055501284294 
1015	 0,119446296228611 
1016	 0,117546970359389 
1017	 0,118210935708153 
1018	 0,121822378242601 
1019	 0,124715214090379 
1020	 0,121603902443949 
1021	 0,116390514163856 
1022	 0,113349519864295 
1023	 0,121267800609745 
1024	 0,126505539874604 
1025	 0,124605616714144 
1026	 0,119587134853838 
1027	 0,116404872356993 
1028	 0,118011353358257 
1029	 0,119970318266596 
1030	 0,121194545295092 
1031	 0,121122980775218 
1032	 0,120872012173435 
1033	 0,121897131062464 
1034	 0,126570555088743 
1035	 0,129266954938911 
1036	 0,128037741553873 
1037	 0,122181136009118 
1038	 0,118798808712708 
1039	 0,120740157768863 
1040	 0,123134065919344 
1041	 0,124284926884359 
1042	 0,123359138416194 
1043	 0,124525308265228 
1044	 0,12640226209371 
1045	 0,126350327695223 
1046	 0,126025019202129 
1047	 0,127471473736035 
1048	 0,134711114214897 
1049	 0,137294883936682 
1050	 0,131909449636797 
1051	 0,117772186307365 
1052	 0,113874802996994 
1053	 0,126422552393203 
1054	 0,132634713328198 
1055	 0,134960315121956 
1056	 0,136718661453383 
1057	 0,137011343768297 
1058	 0,134431059422896 
1059	 0,127603683224473 
1060	 0,126756912235774 
1061	 0,129333547945534 
1062	 0,124124038081581 
1063	 0,123449347952439 
1064	 0,128715923234302 
1065	 0,130963548069695 
1066	 0,134367973167576 
1067	 0,137043021192572 
1068	 0,118843681788482 
1069	 0,111274822289845 
1070	 0,133578133353195 
1071	 0,126823493151946 
1072	 0,117325107588414 
1073	 0,139272855471992 
1074	 0,141479124072086 
1075	 0,131515837456601 
