Wavelength	SCORFF200751.asd
325	 0,571279805039346 
326	 0,437385635864593 
327	 0,327643479108166 
328	 0,313817091505211 
329	 0,465750975081959 
330	 0,515554325652699 
331	 0,293316747710053 
332	 0,267314679639364 
333	 0,379342511444563 
334	 0,355331176317453 
335	 0,332017311939284 
336	 0,339715789169341 
337	 0,286484619583988 
338	 0,220717289323577 
339	 0,229291092191372 
340	 0,276149400776219 
341	 0,320060751684543 
342	 0,316220252882033 
343	 0,342024305355848 
344	 0,382687924370061 
345	 0,299276662427326 
346	 0,219103054135477 
347	 0,274647745816469 
348	 0,315292102134205 
349	 0,32315898379124 
350	 0,328738413431113 
351	 0,338559855579375 
352	 0,344994265182208 
353	 0,297322280787444 
354	 0,250401603505794 
355	 0,271955722450004 
356	 0,285387911959058 
357	 0,283471206216814 
358	 0,308285640182178 
359	 0,312190721429104 
360	 0,279487159052664 
361	 0,258517579503992 
362	 0,252346028249383 
363	 0,255023200543232 
364	 0,26167530534449 
365	 0,272824445206342 
366	 0,298991137463507 
367	 0,306284330414334 
368	 0,279929021724113 
369	 0,270573909683455 
370	 0,272774107537328 
371	 0,263526904151833 
372	 0,261358494194429 
373	 0,271665824802885 
374	 0,298807778186273 
375	 0,307974600070596 
376	 0,279875036445433 
377	 0,279000816179033 
378	 0,295359333874614 
379	 0,284915254664798 
380	 0,278021232658646 
381	 0,282831927687616 
382	 0,290435309230756 
383	 0,292628603395291 
384	 0,283684463590066 
385	 0,27304189482356 
386	 0,267651979200501 
387	 0,280002079499109 
388	 0,289242212282749 
389	 0,285308731201258 
390	 0,264241008381347 
391	 0,251803905926566 
392	 0,279388862126579 
393	 0,284729190683151 
394	 0,269657493447359 
395	 0,282504765646878 
396	 0,292545455446012 
397	 0,285987553931138 
398	 0,275114189099943 
399	 0,269087109154371 
400	 0,278567179053613 
401	 0,278155077334381 
402	 0,266756061011108 
403	 0,26441824948341 
404	 0,27204022431731 
405	 0,286915086957832 
406	 0,282883164347072 
407	 0,270295410773382 
408	 0,277583372001704 
409	 0,283616112284964 
410	 0,282395472755757 
411	 0,276853523604807 
412	 0,270349868292019 
413	 0,266102861077669 
414	 0,270166884583796 
415	 0,277644517027934 
416	 0,273739071080637 
417	 0,273079648465723 
418	 0,278934351785329 
419	 0,272750239251557 
420	 0,263848282576108 
421	 0,265874172443624 
422	 0,270248028736853 
423	 0,274007194666205 
424	 0,275322665761497 
425	 0,273959506329062 
426	 0,270354744026707 
427	 0,269190896171121 
428	 0,270105028489551 
429	 0,270980028894848 
430	 0,273539774140476 
431	 0,27704837509828 
432	 0,277224935111328 
433	 0,275441467763496 
434	 0,27332189616875 
435	 0,274026009271212 
436	 0,276727182625664 
437	 0,278400478123352 
438	 0,277189749156878 
439	 0,273193697592613 
440	 0,272694189843759 
441	 0,273284694168165 
442	 0,271200341068956 
443	 0,272204428010115 
444	 0,275726553763024 
445	 0,275279123558811 
446	 0,275151320179581 
447	 0,277587377173895 
448	 0,278005083368142 
449	 0,27660900622638 
450	 0,274815036509537 
451	 0,27409925316865 
452	 0,274724062928905 
453	 0,275032552178085 
454	 0,275303464883095 
455	 0,275828655263069 
456	 0,275905524344793 
457	 0,275697851427152 
458	 0,275830703069007 
459	 0,276656760630518 
460	 0,278376427960811 
461	 0,28117808641301 
462	 0,283517657461598 
463	 0,283487331834766 
464	 0,280132327654218 
465	 0,275311159646757 
466	 0,275478688155267 
467	 0,27803663591759 
468	 0,280693076910264 
469	 0,280149614475484 
470	 0,278198155166216 
471	 0,279482356662207 
472	 0,28013321986153 
473	 0,279291444033717 
474	 0,278652729049105 
475	 0,279349724023526 
476	 0,282186239591265 
477	 0,282461006218281 
478	 0,280719252527024 
479	 0,281539145735189 
480	 0,281137236111292 
481	 0,278369448257419 
482	 0,277721233004369 
483	 0,27885939844342 
484	 0,280597936193946 
485	 0,281614435530172 
486	 0,281364933124736 
487	 0,279481129768174 
488	 0,278773599259841 
489	 0,28104174072635 
490	 0,281543705671745 
491	 0,280351422043849 
492	 0,279211593571065 
493	 0,279296856565058 
494	 0,280743910780541 
495	 0,281447623896113 
496	 0,28117342905401 
497	 0,27990661816127 
498	 0,279758341943875 
499	 0,280724964291024 
500	 0,28127664176678 
501	 0,281127455053855 
502	 0,280226856160716 
503	 0,279462933431158 
504	 0,279844785976735 
505	 0,283036810593341 
506	 0,284531147476534 
507	 0,283558796009984 
508	 0,283473235920599 
509	 0,283607521000117 
510	 0,283288552609477 
511	 0,283731775360762 
512	 0,284586300386712 
513	 0,28430687196456 
514	 0,284511861216738 
515	 0,285564187365145 
516	 0,285013545338836 
517	 0,284122859685286 
518	 0,284962356085656 
519	 0,285399642368846 
520	 0,285305427643737 
521	 0,28641550407303 
522	 0,287002875820723 
523	 0,285979962162235 
524	 0,285801452363152 
525	 0,286489111655212 
526	 0,287190189347048 
527	 0,287908960903564 
528	 0,288466888860255 
529	 0,288283142388074 
530	 0,288033133616969 
531	 0,28850571114033 
532	 0,287507933394241 
533	 0,285540292177831 
534	 0,285558697909627 
535	 0,286347830645813 
536	 0,287030237325872 
537	 0,286581245410214 
538	 0,285768613680317 
539	 0,28632160947554 
540	 0,286340458405988 
541	 0,285728189677696 
542	 0,286906510303046 
543	 0,288046789334209 
544	 0,287356327839243 
545	 0,287268779473559 
546	 0,288005276764008 
547	 0,288839037644874 
548	 0,289164442122549 
549	 0,288790312174066 
550	 0,288883535113403 
551	 0,289332338583497 
552	 0,289747694269534 
553	 0,290153955356092 
554	 0,290329551574227 
555	 0,289463197120828 
556	 0,288697303403285 
557	 0,288937524004851 
558	 0,288887872619726 
559	 0,288616090326075 
560	 0,289011643687386 
561	 0,288807463665257 
562	 0,287722582600017 
563	 0,287395459115619 
564	 0,287371528263236 
565	 0,286842538144867 
566	 0,287040345434776 
567	 0,287997412273218 
568	 0,288737843715285 
569	 0,289384133706455 
570	 0,289994384285074 
571	 0,290282196681037 
572	 0,290657417478453 
573	 0,292130491146177 
574	 0,293357983028369 
575	 0,293946982715798 
576	 0,294728026026257 
577	 0,295284813092739 
578	 0,295130836867711 
579	 0,295709142703843 
580	 0,297032715302222 
581	 0,298068086882694 
582	 0,298883390446998 
583	 0,29948857043948 
584	 0,299815690551164 
585	 0,300235775375003 
586	 0,301415632676254 
587	 0,302288454852221 
588	 0,302751931709263 
589	 0,30396255674304 
590	 0,30521681353998 
591	 0,305825991829096 
592	 0,306285345167295 
593	 0,306653063452778 
594	 0,30677109617296 
595	 0,30700866515797 
596	 0,307506873463892 
597	 0,307906867922259 
598	 0,308154581060038 
599	 0,308247796869467 
600	 0,308028934106072 
601	 0,307585129406811 
602	 0,307412543949976 
603	 0,307111982314729 
604	 0,306451849737336 
605	 0,306736096633308 
606	 0,307345474925924 
607	 0,306214849055746 
608	 0,305167133594007 
609	 0,304838605710887 
610	 0,304524246965497 
611	 0,304360735922287 
612	 0,304572804646437 
613	 0,304175794376383 
614	 0,303294899405375 
615	 0,303187558569203 
616	 0,303230009180013 
617	 0,303056987918835 
618	 0,303101918264636 
619	 0,303451256318654 
620	 0,304246645347584 
621	 0,304488985647149 
622	 0,303964197142877 
623	 0,303461144909692 
624	 0,30321484168853 
625	 0,303397622479065 
626	 0,303564842923757 
627	 0,303709610069917 
628	 0,3041803432443 
629	 0,304485932242039 
630	 0,304432868188822 
631	 0,30459014689681 
632	 0,30499381842855 
633	 0,305605191791109 
634	 0,305860585607019 
635	 0,305834287712849 
636	 0,306580454279944 
637	 0,307472071641669 
638	 0,307972057919866 
639	 0,308622970488301 
640	 0,309430821232799 
641	 0,310211531414494 
642	 0,310816525658435 
643	 0,311244787523857 
644	 0,311996367403322 
645	 0,312681849724329 
646	 0,312749455638028 
647	 0,312641407636883 
648	 0,312401927908222 
649	 0,311716985025314 
650	 0,311186137493822 
651	 0,311115071944246 
652	 0,310358577503437 
653	 0,309163434249724 
654	 0,308341879841536 
655	 0,307875630954129 
656	 0,30756755936 
657	 0,306428628981646 
658	 0,305019702003736 
659	 0,303982238393712 
660	 0,303024140491581 
661	 0,302039846786805 
662	 0,300842536020012 
663	 0,299779067015231 
664	 0,299010476047512 
665	 0,298279563517499 
666	 0,297606629076167 
667	 0,297072429264228 
668	 0,296529988260736 
669	 0,295980998458525 
670	 0,295644387743708 
671	 0,29522025597141 
672	 0,2945195922162 
673	 0,294285873676319 
674	 0,294463730386244 
675	 0,294681851360354 
676	 0,294555228848582 
677	 0,294046525030373 
678	 0,293921094592651 
679	 0,294186622025167 
680	 0,29475997243278 
681	 0,295268839473321 
682	 0,295749923281809 
683	 0,296658294780143 
684	 0,297702357813082 
685	 0,298733981993556 
686	 0,299953358782769 
687	 0,301587941692779 
688	 0,304014729822752 
689	 0,306301049303045 
690	 0,308414394045389 
691	 0,311464737938783 
692	 0,31536098231924 
693	 0,319951844455869 
694	 0,324858429224974 
695	 0,3300495009321 
696	 0,335745175592953 
697	 0,341638354326519 
698	 0,347685394023014 
699	 0,354456180384605 
700	 0,361542694610647 
701	 0,368384505469968 
702	 0,374679839330129 
703	 0,380625840355413 
704	 0,387293953926138 
705	 0,393656595066698 
706	 0,399118330754553 
707	 0,404624206523928 
708	 0,410096187101001 
709	 0,41513897356305 
710	 0,419727908280231 
711	 0,423864938782117 
712	 0,427569853195956 
713	 0,431183694957004 
714	 0,434994892521693 
715	 0,438591690158042 
716	 0,441769196204626 
717	 0,444237323264233 
718	 0,446453364437793 
719	 0,448658961880157 
720	 0,450886988100812 
721	 0,453066689637326 
722	 0,455107010077479 
723	 0,456628688901785 
724	 0,45775899961186 
725	 0,459234454020631 
726	 0,460630137627965 
727	 0,46170383189248 
728	 0,46272713800192 
729	 0,463765815675543 
730	 0,4648960035015 
731	 0,465680966875963 
732	 0,466103415795808 
733	 0,466697521509803 
734	 0,467430209303561 
735	 0,468225250571914 
736	 0,468658034220321 
737	 0,468959854386398 
738	 0,469977011566133 
739	 0,470642721723416 
740	 0,470672698159772 
741	 0,470985829523422 
742	 0,471312689053012 
743	 0,471270365867126 
744	 0,471549430054598 
745	 0,472098722639818 
746	 0,472257602139734 
747	 0,472399824558001 
748	 0,472716199356491 
749	 0,473101482572741 
750	 0,473391386560988 
751	 0,473351323477737 
752	 0,473446416585138 
753	 0,473832760214121 
754	 0,474564877084436 
755	 0,475147507174183 
756	 0,475257946983529 
757	 0,475488780640238 
758	 0,475935473380036 
759	 0,476582573264781 
760	 0,477332813195891 
761	 0,478006925345524 
762	 0,478012033548335 
763	 0,478079190343734 
764	 0,478884945499799 
765	 0,479616155624975 
766	 0,480055826003869 
767	 0,48004087097547 
768	 0,480152735433982 
769	 0,480639728378102 
770	 0,48134624357498 
771	 0,481949809234636 
772	 0,482097996569825 
773	 0,482132630984856 
774	 0,482184624188293 
775	 0,482380833095339 
776	 0,482529652459333 
777	 0,48253850029881 
778	 0,482549740798782 
779	 0,482502792277853 
780	 0,482288796946752 
781	 0,482015788911574 
782	 0,481846199490288 
783	 0,482223982500636 
784	 0,482550365151736 
785	 0,482442708317303 
786	 0,482260425859124 
787	 0,482240528235658 
788	 0,482722800387246 
789	 0,482936822748201 
790	 0,48284319337893 
791	 0,483355755109362 
792	 0,483934667226548 
793	 0,484127994868797 
794	 0,484105495119771 
795	 0,484130593952396 
796	 0,484703914504833 
797	 0,485267927277538 
798	 0,485657783258983 
799	 0,486109994618797 
800	 0,486495948245343 
801	 0,486691632949117 
802	 0,486769923463419 
803	 0,486843643086967 
804	 0,487143832373662 
805	 0,48744196748688 
806	 0,487689111199582 
807	 0,488137882510618 
808	 0,488498597550603 
809	 0,488471686560025 
810	 0,488682508573745 
811	 0,489094982381218 
812	 0,489269582447419 
813	 0,489187095367311 
814	 0,488938038303319 
815	 0,489110275225362 
816	 0,489538915272269 
817	 0,489954066370776 
818	 0,490227716991224 
819	 0,49038704061299 
820	 0,49066708512612 
821	 0,490839371945509 
822	 0,490835818446043 
823	 0,490931964461125 
824	 0,491094036738949 
825	 0,491242982992512 
826	 0,491741835859536 
827	 0,492448573913917 
828	 0,492678531185013 
829	 0,492764986833068 
830	 0,49293947529746 
831	 0,493550468937427 
832	 0,494107206018099 
833	 0,493905895178515 
834	 0,49424750851704 
835	 0,495146997461205 
836	 0,495558371035101 
837	 0,495861330907084 
838	 0,496220626554378 
839	 0,496403538204209 
840	 0,496418222165602 
841	 0,496308841856845 
842	 0,496468482607287 
843	 0,496833583305762 
844	 0,496778020258205 
845	 0,496948514716348 
846	 0,497561894581312 
847	 0,497521005757692 
848	 0,497151150531411 
849	 0,497082231064621 
850	 0,497228993812905 
851	 0,497425905530244 
852	 0,497228096336383 
853	 0,496675350037046 
854	 0,495938444059365 
855	 0,49594777249225 
856	 0,496286079705976 
857	 0,496239067602457 
858	 0,495889272412596 
859	 0,495406775961678 
860	 0,495262936367886 
861	 0,495315666787362 
862	 0,495497679525186 
863	 0,495844256821614 
864	 0,496199335997396 
865	 0,496371872347641 
866	 0,496736761476718 
867	 0,497307952330324 
868	 0,497882207078973 
869	 0,498258981480365 
870	 0,498432923606201 
871	 0,499114821039426 
872	 0,499701741656653 
873	 0,499439040264888 
874	 0,499646272589797 
875	 0,500411568581665 
876	 0,501032067804062 
877	 0,502025016299706 
878	 0,503353137951611 
879	 0,503737332365792 
880	 0,503714758477062 
881	 0,503980764035038 
882	 0,504405793549754 
883	 0,504867741483842 
884	 0,505054112211543 
885	 0,505263904923372 
886	 0,505672792434651 
887	 0,506600478997865 
888	 0,50732720806208 
889	 0,507213943682104 
890	 0,507136176405251 
891	 0,50724577362332 
892	 0,50750712652168 
893	 0,507695936391161 
894	 0,507668797758989 
895	 0,507142389168542 
896	 0,507001955754879 
897	 0,507771165522893 
898	 0,507416870951915 
899	 0,506552159947257 
900	 0,506832525975688 
901	 0,506902814530265 
902	 0,506563357309626 
903	 0,506520588792213 
904	 0,506602971189598 
905	 0,506643986144539 
906	 0,506237047032995 
907	 0,505831053413593 
908	 0,50611755816823 
909	 0,505993776620092 
910	 0,505570626911199 
911	 0,506111384437792 
912	 0,506501323516044 
913	 0,506255665395106 
914	 0,505801580027734 
915	 0,505812922724205 
916	 0,506916312875691 
917	 0,507741501055975 
918	 0,508113593098392 
919	 0,508484499574621 
920	 0,508161144512139 
921	 0,50727249883203 
922	 0,507342924624032 
923	 0,508201161397887 
924	 0,509485966178908 
925	 0,509831640739304 
926	 0,50956366872914 
927	 0,509720179559224 
928	 0,509784027722756 
929	 0,509754753092903 
930	 0,509999679103999 
931	 0,510526254246769 
932	 0,511316543837307 
933	 0,512312609084389 
934	 0,513035575373479 
935	 0,512940589451408 
936	 0,513226419428427 
937	 0,513628336916478 
938	 0,512442557226563 
939	 0,512112875572762 
940	 0,513265995030039 
941	 0,513799975827307 
942	 0,513991734219803 
943	 0,514191926455959 
944	 0,514451817664236 
945	 0,514486904337295 
946	 0,513754882342943 
947	 0,512870054188852 
948	 0,512239128871275 
949	 0,51258017525364 
950	 0,512609569929568 
951	 0,511662286326183 
952	 0,510594575979043 
953	 0,51013639931323 
954	 0,510962478976094 
955	 0,511440138591857 
956	 0,51137990036583 
957	 0,511490885314877 
958	 0,510304774628615 
959	 0,508125263034149 
960	 0,508483998579349 
961	 0,509594250052112 
962	 0,509852278607074 
963	 0,508770125624774 
964	 0,507413344261509 
965	 0,507483199784722 
966	 0,508718345315439 
967	 0,510181279442886 
968	 0,509365986124181 
969	 0,507905961938903 
970	 0,50679442795479 
971	 0,507140215482893 
972	 0,507483494346917 
973	 0,506672595539931 
974	 0,508107410974228 
975	 0,510282128499792 
976	 0,509585325092076 
977	 0,5089867307509 
978	 0,508989135355546 
979	 0,508145079388419 
980	 0,508640624551755 
981	 0,511069462565415 
982	 0,512377658171342 
983	 0,511982808177679 
984	 0,509951704848881 
985	 0,510625359348249 
986	 0,513532346624543 
987	 0,516189528598333 
988	 0,515520738907979 
989	 0,512486285968502 
990	 0,514322488079676 
991	 0,515826404674142 
992	 0,514942310803222 
993	 0,516986170667778 
994	 0,51893092736773 
995	 0,517525591019963 
996	 0,517164164392787 
997	 0,517965087328697 
998	 0,5184534911884 
999	 0,520384138485352 
1000	 0,523492046232846 
1001	 0,525544660678884 
1002	 0,525278688266951 
1003	 0,522863063157868 
1004	 0,522983338971151 
1005	 0,524745500676055 
1006	 0,526763362747772 
1007	 0,5285312068839 
1008	 0,529677462394171 
1009	 0,529932743461948 
1010	 0,528074448342874 
1011	 0,525656539470258 
1012	 0,528492065115478 
1013	 0,531734407942757 
1014	 0,532864113553609 
1015	 0,531484898699245 
1016	 0,529856893287677 
1017	 0,529998074821597 
1018	 0,531060899596503 
1019	 0,533070809632898 
1020	 0,536119383060944 
1021	 0,534323489098305 
1022	 0,529824471996331 
1023	 0,532518985414356 
1024	 0,534860690046196 
1025	 0,53469221010653 
1026	 0,534113468573138 
1027	 0,535633284113738 
1028	 0,540091598638722 
1029	 0,54132805734133 
1030	 0,540880500397793 
1031	 0,541300842014936 
1032	 0,540202136428361 
1033	 0,539601202458009 
1034	 0,544301927695276 
1035	 0,54548862066687 
1036	 0,542109149852078 
1037	 0,539680936564567 
1038	 0,540178186832834 
1039	 0,543304689448997 
1040	 0,541836667481644 
1041	 0,539851347750597 
1042	 0,540552659183654 
1043	 0,538010249224447 
1044	 0,535005196842321 
1045	 0,536395848940581 
1046	 0,543040265941302 
1047	 0,550832425746267 
1048	 0,549143918855881 
1049	 0,550437382055025 
1050	 0,55495896785646 
1051	 0,547526232219579 
1052	 0,542233351942926 
1053	 0,544803332186471 
1054	 0,543956561942099 
1055	 0,54628928720664 
1056	 0,555400175105529 
1057	 0,549368199098359 
1058	 0,538534123432128 
1059	 0,542111267394428 
1060	 0,550725663332465 
1061	 0,557787007686245 
1062	 0,553359432605623 
1063	 0,553699674835887 
1064	 0,561447281634918 
1065	 0,567110318107397 
1066	 0,57020412240084 
1067	 0,56836422792427 
1068	 0,549870444229573 
1069	 0,545898433584714 
1070	 0,573447878814993 
1071	 0,566104535128576 
1072	 0,550260679711511 
1073	 0,562599398220909 
1074	 0,570900773435396 
1075	 0,568914361154354 
