Wavelength	SCORFF200595.asd
325	 0,14678232614398 
326	 0,115269518145776 
327	 5,08307423384799E-02 
328	-5,57768698700144E-04 
329	 0,119422595985643 
330	 0,219565414369782 
331	 0,177677258848807 
332	 0,155387851622442 
333	 0,154881679855464 
334	 0,102453605563613 
335	 7,57352908503557E-02 
336	 9,28889467140833E-02 
337	 0,057713233136877 
338	-1,63974602215056E-02 
339	-7,98514041552831E-02 
340	-3,47272572184075E-02 
341	 3,78820295075132E-02 
342	-3,01816586383016E-02 
343	-2,50741042608021E-02 
344	 7,09270987656546E-02 
345	 0,069444949127907 
346	 5,06968918169009E-02 
347	 9,16574745149135E-02 
348	 0,118349480094294 
349	 0,123983906196114 
350	 0,130470349551428 
351	 0,115722441611193 
352	 7,65795576741956E-02 
353	 2,01027630593114E-02 
354	-2,25181132938988E-02 
355	-1,18274680735973E-02 
356	-9,94035033304713E-03 
357	-1,21934460486453E-02 
358	 4,20746950898942E-02 
359	 7,03344209108044E-02 
360	 4,17894014750859E-02 
361	 5,19040965354478E-04 
362	-1,62062758075238E-02 
363	 3,32090312358533E-02 
364	 5,87251918680979E-02 
365	 5,05614027246251E-02 
366	 4,43855879213217E-02 
367	 3,30738476181235E-02 
368	 1,57840437043843E-02 
369	 1,96851834904365E-02 
370	 3,39002756771142E-02 
371	 3,05097642028777E-02 
372	 0,031447276533717 
373	 0,039323753186586 
374	 4,16849424802775E-02 
375	 3,20618471133666E-02 
376	 9,08751536157957E-03 
377	 1,53776455515586E-02 
378	 3,66896305736397E-02 
379	 2,96013828972403E-02 
380	 2,55053652123832E-02 
381	 3,14719633610104E-02 
382	 3,26221855215187E-02 
383	 2,52081044996682E-02 
384	 8,2954853387298E-03 
385	 1,59268845737853E-02 
386	 3,77192125164921E-02 
387	 2,97241056385548E-02 
388	 3,04377406125254E-02 
389	 4,65986429738731E-02 
390	 0,029091812020279 
391	 1,00783063101893E-02 
392	 3,27039783204175E-02 
393	 2,47403584398989E-02 
394	-7,39961663529402E-03 
395	 3,6778169124498E-03 
396	 1,85489658653043E-02 
397	 1,84842657347114E-02 
398	 1,55589770558265E-02 
399	 1,37097396265494E-02 
400	 1,69471032191848E-02 
401	 1,48033915880888E-02 
402	 6,47196592648291E-03 
403	-4,08361685791006E-03 
404	 1,09789411294196E-04 
405	 2,53931204414021E-02 
406	 2,10205421409772E-02 
407	 3,08550247471259E-03 
408	 1,91412672808639E-02 
409	 2,83664612776295E-02 
410	 2,30318041546296E-02 
411	 2,69553407747232E-02 
412	 2,62796040907288E-02 
413	 8,74506325952661E-03 
414	 5,2182570610025E-03 
415	 1,42476737101119E-02 
416	 1,80238900437467E-02 
417	 2,05745031005346E-02 
418	 2,18980153106352E-02 
419	 1,48808043992118E-02 
420	 8,40305766805136E-03 
421	 1,42348653202378E-02 
422	 1,73657152020265E-02 
423	 1,61378873965142E-02 
424	 1,74312816353374E-02 
425	 1,89041888276166E-02 
426	 1,87223636761172E-02 
427	 1,31375341845392E-02 
428	 7,01521404284757E-03 
429	 9,3697046217231E-03 
430	 1,31910033025183E-02 
431	 1,60991457526304E-02 
432	 1,82734855614667E-02 
433	 1,83740940983837E-02 
434	 1,56438063424962E-02 
435	 1,66795270508156E-02 
436	 1,96815980442328E-02 
437	 1,72221910377276E-02 
438	 1,33869256376972E-02 
439	 1,03720356508768E-02 
440	 1,05071474258203E-02 
441	 1,19482423433326E-02 
442	 1,20978303448198E-02 
443	 1,25475498698248E-02 
444	 1,36875603654882E-02 
445	 1,58748740202945E-02 
446	 0,017410922318114 
447	 1,72746789805326E-02 
448	 1,65100136772913E-02 
449	 1,58489159091129E-02 
450	 1,62922829078573E-02 
451	 1,67793795281214E-02 
452	 1,68052859947931E-02 
453	 1,56202548287348E-02 
454	 1,51074051927988E-02 
455	 1,67823567861657E-02 
456	 1,59325488487657E-02 
457	 1,32242604579286E-02 
458	 1,29464707352328E-02 
459	 1,22347751566226E-02 
460	 1,07133838530095E-02 
461	 1,36386737142509E-02 
462	 1,69309947116905E-02 
463	 1,46510747890522E-02 
464	 1,48339948109791E-02 
465	 1,73907474625522E-02 
466	 1,42285348902146E-02 
467	 1,29372545868982E-02 
468	 1,76563784063129E-02 
469	 1,74758889473849E-02 
470	 1,38072082231287E-02 
471	 1,20927954986219E-02 
472	 1,38867634295875E-02 
473	 1,83341037462549E-02 
474	 0,018605693779315 
475	 1,61848505616225E-02 
476	 1,31120336027118E-02 
477	 1,30229587035176E-02 
478	 1,46649073204995E-02 
479	 1,20557810419914E-02 
480	 1,02774199081575E-02 
481	 1,11442062286318E-02 
482	 9,41200001818322E-03 
483	 7,94697203761198E-03 
484	 1,16898849128667E-02 
485	 1,49490093835733E-02 
486	 1,58519446764262E-02 
487	 1,38560061521945E-02 
488	 1,24924574333602E-02 
489	 1,42496341796116E-02 
490	 1,54655079037542E-02 
491	 1,52961292644446E-02 
492	 1,31835135742902E-02 
493	 0,011066045481227 
494	 9,95611508826541E-03 
495	 1,02542999700641E-02 
496	 1,18043300597525E-02 
497	 1,43293576342878E-02 
498	 1,44822096779146E-02 
499	 1,28032037653803E-02 
500	 1,36605383111767E-02 
501	 1,38506695706689E-02 
502	 1,19593545526976E-02 
503	 1,18902571653859E-02 
504	 1,28264739776856E-02 
505	 1,23593309468749E-02 
506	 1,32702766455572E-02 
507	 1,52799686833161E-02 
508	 1,36291368122269E-02 
509	 0,011862023734827 
510	 1,31891720521212E-02 
511	 1,38014410153574E-02 
512	 0,013609435257449 
513	 1,44379271774523E-02 
514	 1,45469168501241E-02 
515	 1,34592336432386E-02 
516	 1,31268799519044E-02 
517	 1,33445549169899E-02 
518	 1,35505618930277E-02 
519	 1,33740762291346E-02 
520	 1,30175915620701E-02 
521	 1,37117076535398E-02 
522	 1,42166003578409E-02 
523	 0,013741647156101 
524	 1,40369410858591E-02 
525	 0,014899013119558 
526	 1,54952971655372E-02 
527	 0,014637665690084 
528	 1,27064188559793E-02 
529	 1,43617747390738E-02 
530	 1,61537361524456E-02 
531	 1,38629917389218E-02 
532	 1,27838406013185E-02 
533	 1,34976637425338E-02 
534	 0,013904001829082 
535	 1,38147290809954E-02 
536	 1,32145150630595E-02 
537	 1,32945106072174E-02 
538	 1,37560192380762E-02 
539	 1,37570326097175E-02 
540	 0,013619857590378 
541	 1,34945085262135E-02 
542	 1,37103379236692E-02 
543	 1,37463325246164E-02 
544	 1,31404501915303E-02 
545	 1,33228161496122E-02 
546	 1,41621611525212E-02 
547	 1,45972747493517E-02 
548	 1,43008876722964E-02 
549	 1,33241191043156E-02 
550	 1,33908451180767E-02 
551	 1,40409190860325E-02 
552	 1,42479285211512E-02 
553	 1,44584427913613E-02 
554	 1,46020595641953E-02 
555	 1,39594323044179E-02 
556	 1,35652393108274E-02 
557	 1,42031264485686E-02 
558	 1,43237325680121E-02 
559	 1,39547686725044E-02 
560	 1,39325738071983E-02 
561	 1,36708664939908E-02 
562	 1,31105878597722E-02 
563	 1,33085047232457E-02 
564	 1,34841544200895E-02 
565	 1,24876771901496E-02 
566	 1,28228105673818E-02 
567	 1,42578627082978E-02 
568	 1,36016452935137E-02 
569	 1,29230669281242E-02 
570	 1,35999852516578E-02 
571	 1,40076587267027E-02 
572	 1,41759562146441E-02 
573	 1,48085713277654E-02 
574	 1,48331137361822E-02 
575	 1,41813545365489E-02 
576	 1,46386329350887E-02 
577	 0,015174097417297 
578	 1,45328516020875E-02 
579	 1,44425602708208E-02 
580	 1,50004335016424E-02 
581	 0,015326846329695 
582	 1,51186207315046E-02 
583	 1,43281460696678E-02 
584	 1,41214826572028E-02 
585	 1,45135765404471E-02 
586	 1,52920024357148E-02 
587	 1,54313146026729E-02 
588	 0,014897146166209 
589	 0,015113140751876 
590	 0,01588969405698 
591	 0,016902244893718 
592	 1,67291049585619E-02 
593	 1,57157299642896E-02 
594	 1,55823568199718E-02 
595	 1,56490659833268E-02 
596	 1,56369668060915E-02 
597	 1,56208434552051E-02 
598	 1,57215126326005E-02 
599	 1,61334753639904E-02 
600	 1,61578392448144E-02 
601	 1,57544498096861E-02 
602	 1,55871801538181E-02 
603	 1,55466070540723E-02 
604	 1,55529034735714E-02 
605	 1,59013759908449E-02 
606	 1,62090250866379E-02 
607	 1,54422006884543E-02 
608	 1,46434567801219E-02 
609	 1,42700598963475E-02 
610	 1,43119264895792E-02 
611	 1,45856136407993E-02 
612	 1,48618555333623E-02 
613	 1,43263637988074E-02 
614	 1,33794019896589E-02 
615	 1,39970075641826E-02 
616	 1,49860337722967E-02 
617	 1,54726911342722E-02 
618	 1,49839609540356E-02 
619	 1,42747519567781E-02 
620	 1,50065187860921E-02 
621	 1,54783263456744E-02 
622	 1,53067742318957E-02 
623	 0,015602953360365 
624	 1,56662294083488E-02 
625	 1,47854791307542E-02 
626	 1,47843785219809E-02 
627	 1,55589692558471E-02 
628	 1,56426176843854E-02 
629	 1,55538908526371E-02 
630	 1,55128364210494E-02 
631	 1,52166315374028E-02 
632	 1,50302605578174E-02 
633	 1,56055314718827E-02 
634	 1,56992957867095E-02 
635	 1,52217703682876E-02 
636	 1,54213708069671E-02 
637	 1,57825288587271E-02 
638	 0,015867874529729 
639	 1,63076130415219E-02 
640	 1,69355414812176E-02 
641	 1,71109019981199E-02 
642	 1,70893599400815E-02 
643	 1,69615150038675E-02 
644	 1,65342327259474E-02 
645	 1,66181897886973E-02 
646	 1,82628309885984E-02 
647	 0,018031249622617 
648	 1,61291944031991E-02 
649	 1,64649701934263E-02 
650	 1,72184098238598E-02 
651	 1,71494413300279E-02 
652	 1,67079192263568E-02 
653	 1,62690039572268E-02 
654	 1,65022912551274E-02 
655	 1,66478448819565E-02 
656	 1,64395207586715E-02 
657	 1,59828809081878E-02 
658	 1,54205683046063E-02 
659	 1,49126301261332E-02 
660	 1,48633643551364E-02 
661	 1,50827953327798E-02 
662	 1,47839379929981E-02 
663	 1,43611218781498E-02 
664	 0,014071102145702 
665	 1,42106460674827E-02 
666	 1,46037876442942E-02 
667	 1,49537993993569E-02 
668	 1,47363926646273E-02 
669	 1,41370121877374E-02 
670	 1,45693420410351E-02 
671	 1,49980262260213E-02 
672	 1,46172200258592E-02 
673	 1,44540666945809E-02 
674	 1,45455110129391E-02 
675	 1,45488672049362E-02 
676	 1,45509053278771E-02 
677	 1,45613859075919E-02 
678	 1,45098370001645E-02 
679	 1,45016205286565E-02 
680	 1,46632687030516E-02 
681	 1,49055432904392E-02 
682	 1,51725311404766E-02 
683	 1,54180699173778E-02 
684	 1,54723131507912E-02 
685	 0,01527587327 
686	 1,51831002478606E-02 
687	 1,53129732580022E-02 
688	 1,57741287376546E-02 
689	 1,62835733738151E-02 
690	 1,67175119007486E-02 
691	 1,70032190381567E-02 
692	 0,01737648938617 
693	 1,80601443318324E-02 
694	 1,90711333778899E-02 
695	 2,03231381044553E-02 
696	 2,14945071412455E-02 
697	 2,33344391488845E-02 
698	 2,58760655661122E-02 
699	 2,73387340443071E-02 
700	 0,028581128418459 
701	 3,09082968367233E-02 
702	 3,32973024956789E-02 
703	 3,55615567253895E-02 
704	 3,79056437039835E-02 
705	 4,05597048025545E-02 
706	 4,35672643423068E-02 
707	 4,60393561063791E-02 
708	 4,80999716199226E-02 
709	 5,02328379758074E-02 
710	 5,22179648932418E-02 
711	 5,40304366068835E-02 
712	 5,57314677374124E-02 
713	 5,75467295478558E-02 
714	 5,96265363921658E-02 
715	 6,10217698052513E-02 
716	 6,19554931570385E-02 
717	 6,35115293703997E-02 
718	 6,49636636769676E-02 
719	 6,60509798556624E-02 
720	 6,70690104027042E-02 
721	 6,81120132439911E-02 
722	 6,92662698261606E-02 
723	 7,02334307857259E-02 
724	 7,09733307683194E-02 
725	 7,16659494710209E-02 
726	 7,21246573562009E-02 
727	 7,22964396283936E-02 
728	 7,26844051177978E-02 
729	 7,32558642991312E-02 
730	 7,38154938526616E-02 
731	 7,44005001616676E-02 
732	 0,074928609991266 
733	 7,50804355791588E-02 
734	 7,51989981129098E-02 
735	 7,55567004844304E-02 
736	 7,54273330365918E-02 
737	 7,52269866989556E-02 
738	 7,64000264435108E-02 
739	 7,70896117366508E-02 
740	 7,67763347234214E-02 
741	 7,69288479661412E-02 
742	 7,72663563152894E-02 
743	 7,73350160802105E-02 
744	 7,75814105048648E-02 
745	 7,79502513746484E-02 
746	 7,79915839087562E-02 
747	 7,79513963646954E-02 
748	 7,79763253223018E-02 
749	 0,078069441619397 
750	 7,82966961848629E-02 
751	 7,87615847137805E-02 
752	 7,89941944002006E-02 
753	 7,89351841310814E-02 
754	 7,88862512334005E-02 
755	 7,90501781269725E-02 
756	 7,95070526859495E-02 
757	 0,079505340245191 
758	 7,93197797785018E-02 
759	 7,97485201312488E-02 
760	 0,080238418592565 
761	 8,05775246960069E-02 
762	 8,07043224373959E-02 
763	 8,07210495924782E-02 
764	 8,07398911800796E-02 
765	 8,08888327901344E-02 
766	 8,10495176460945E-02 
767	 8,07719088194397E-02 
768	 8,08581338589846E-02 
769	 8,14447490456166E-02 
770	 8,12903783335396E-02 
771	 8,09793388629825E-02 
772	 8,13074438101351E-02 
773	 8,16228146794415E-02 
774	 8,18246469015169E-02 
775	 8,21269060240409E-02 
776	 8,21564724904788E-02 
777	 0,081800635050018 
778	 8,16827003575036E-02 
779	 8,18344356886471E-02 
780	 8,21829139276397E-02 
781	 8,25406407210995E-02 
782	 8,27492537834393E-02 
783	 8,24686526040736E-02 
784	 8,24171761547935E-02 
785	 8,29687655955745E-02 
786	 8,29295357400552E-02 
787	 0,082683502011277 
788	 8,32368332996427E-02 
789	 8,34720460761116E-02 
790	 0,083229596143473 
791	 8,33370609535981E-02 
792	 8,34323836024751E-02 
793	 8,32690044823449E-02 
794	 8,36166101228499E-02 
795	 0,084164598643319 
796	 8,39976302781208E-02 
797	 8,37129263565179E-02 
798	 8,35905750635886E-02 
799	 8,39009029261843E-02 
800	 8,44026475559207E-02 
801	 0,084820947708408 
802	 0,084801049305902 
803	 8,45459542794106E-02 
804	 8,47391918468323E-02 
805	 8,50291118557282E-02 
806	 8,52588545645823E-02 
807	 8,52451714478738E-02 
808	 8,53007085832196E-02 
809	 8,57435935645792E-02 
810	 8,58176676109211E-02 
811	 8,56685916610882E-02 
812	 8,61676817247128E-02 
813	 8,65841494838732E-02 
814	 8,66639009607056E-02 
815	 8,68957728792189E-02 
816	 8,71284242984536E-02 
817	 8,71368603164895E-02 
818	 8,69011532988414E-02 
819	 8,65597281524571E-02 
820	 8,64383679055539E-02 
821	 8,67322972527249E-02 
822	 8,74323916802046E-02 
823	 8,78456755177338E-02 
824	 8,79237784318813E-02 
825	 8,77239381204976E-02 
826	 8,79996849752259E-02 
827	 8,86651957126584E-02 
828	 8,88223082119492E-02 
829	 8,88718271510141E-02 
830	 8,89654267497787E-02 
831	 8,87274405756623E-02 
832	 8,83443002320626E-02 
833	 8,81104223829711E-02 
834	 8,89992337542862E-02 
835	 9,05174342618773E-02 
836	 9,03500683668915E-02 
837	 8,97881910522116E-02 
838	 8,95631012895672E-02 
839	 8,94502696144789E-02 
840	 8,95596652041611E-02 
841	 9,00429672379318E-02 
842	 9,04216250375525E-02 
843	 9,05645824168303E-02 
844	 9,04909783160388E-02 
845	 9,06117256223184E-02 
846	 9,10750117110521E-02 
847	 9,11623335844315E-02 
848	 9,10341395673466E-02 
849	 0,091032933127479 
850	 9,11608790626304E-02 
851	 9,13433276341349E-02 
852	 9,12954879702421E-02 
853	 9,12967114740216E-02 
854	 0,091429371072473 
855	 9,10814223745988E-02 
856	 9,08492229630227E-02 
857	 9,16050432810988E-02 
858	 9,22485286922669E-02 
859	 9,24055595714256E-02 
860	 9,17840018898576E-02 
861	 9,15669409415208E-02 
862	 9,22130111624263E-02 
863	 9,21211931051161E-02 
864	 9,19466179865231E-02 
865	 9,27283480098096E-02 
866	 9,32326727191959E-02 
867	 9,33070981159968E-02 
868	 9,35129417824804E-02 
869	 9,32589742266877E-02 
870	 9,24882780859581E-02 
871	 9,25603052295601E-02 
872	 9,29936487810032E-02 
873	 9,30655083089455E-02 
874	 9,34708038224501E-02 
875	 9,41657485012745E-02 
876	 9,46936960169919E-02 
877	 9,48632492246438E-02 
878	 9,47428522741571E-02 
879	 0,09531784236995 
880	 9,59355859529007E-02 
881	 9,58482258983912E-02 
882	 9,60572246246221E-02 
883	 9,63824472881928E-02 
884	 0,095712467371281 
885	 9,55809081287555E-02 
886	 9,63782511683408E-02 
887	 9,69877946467132E-02 
888	 9,72780566722156E-02 
889	 9,72156883765513E-02 
890	 9,71902871261316E-02 
891	 9,72294078958672E-02 
892	 0,097192347916514 
893	 9,72354403255051E-02 
894	 9,73841857484184E-02 
895	 9,75354132681179E-02 
896	 9,75879634196958E-02 
897	 9,74736998318848E-02 
898	 9,72177383176599E-02 
899	 9,72481343548947E-02 
900	 9,83352320537655E-02 
901	 9,84793284309124E-02 
902	 9,76496219033532E-02 
903	 9,80567710354576E-02 
904	 9,87210598817927E-02 
905	 9,89894643936715E-02 
906	 9,90183681453044E-02 
907	 9,86144727249867E-02 
908	 9,75195671314844E-02 
909	 9,76290725698803E-02 
910	 9,88643012376925E-02 
911	 9,95238111321391E-02 
912	 9,93474264468172E-02 
913	 9,84465799263106E-02 
914	 9,84079153495272E-02 
915	 9,91923710619666E-02 
916	 0,100459264747566 
917	 0,100040354973412 
918	 9,86656769211296E-02 
919	 9,93173724673584E-02 
920	 0,100347771870752 
921	 0,101016646627286 
922	 0,100723164107065 
923	 9,99044384655693E-02 
924	 0,099151954018557 
925	 0,100116496725768 
926	 0,101769289270698 
927	 0,101850191753585 
928	 0,10107646155779 
929	 9,99544563915336E-02 
930	 0,099497368652789 
931	 9,97308132032606E-02 
932	 0,100541960613226 
933	 0,10117431666133 
934	 0,101229824458104 
935	 0,100415196052636 
936	 0,101108571095081 
937	 0,102695744375016 
938	 0,101859526107615 
939	 0,10115879826565 
940	 0,101457803746902 
941	 0,101945650331771 
942	 0,101777535108041 
943	 0,10049231119581 
944	 0,101130862751563 
945	 0,102405085255231 
946	 0,100942473606871 
947	 0,100679965800383 
948	 0,101941577403581 
949	 0,101758310740868 
950	 0,10063275032766 
951	 9,91840842123553E-02 
952	 9,93900462453999E-02 
953	 9,99997502793989E-02 
954	 9,93382461514126E-02 
955	 0,100138384797491 
956	 0,101505648892693 
957	 9,96513975016661E-02 
958	 9,84566472861272E-02 
959	 9,89732293475968E-02 
960	 9,93237521308464E-02 
961	 0,099512267959288 
962	 9,95901779660862E-02 
963	 0,099796205346041 
964	 9,98569964034194E-02 
965	 9,93264406169261E-02 
966	 9,86774449808876E-02 
967	 9,83552943260335E-02 
968	 9,91856148742351E-02 
969	 0,100543551796493 
970	 0,101676191489494 
971	 0,100529956303289 
972	 9,88123182928754E-02 
973	 9,82715720937965E-02 
974	 9,90122760018715E-02 
975	 9,99792207187161E-02 
976	 9,92367075915733E-02 
977	 9,91776455447231E-02 
978	 0,100068234393908 
979	 0,100532419809039 
980	 0,100282237525073 
981	 0,099637212690347 
982	 0,101499269129498 
983	 0,10327195353077 
984	 0,102352998714162 
985	 0,102642362185528 
986	 0,103677372924718 
987	 0,103185594825197 
988	 0,102547460147658 
989	 0,102218201821966 
990	 0,102329542795864 
991	 0,102602173464206 
992	 0,1030155148117 
993	 0,104418966423397 
994	 0,106029938451147 
995	 0,106769211116842 
996	 0,103640865326895 
997	 0,100000605818224 
998	 0,103288809169294 
999	 0,105794380537968 
1000	 0,106015124922323 
1001	 0,107248977116574 
1002	 0,106909867956424 
1003	 0,104736927822085 
1004	 0,106842130543244 
1005	 0,1093301561965 
1006	 0,10821349211678 
1007	 0,10823669545297 
1008	 0,108516832519371 
1009	 0,106101360810886 
1010	 0,10612168039985 
1011	 0,108346334306759 
1012	 0,10706183553875 
1013	 0,107203774910026 
1014	 0,110246308057635 
1015	 0,112532202119504 
1016	 0,112221737305658 
1017	 0,108634008902492 
1018	 0,108307857970854 
1019	 0,109850046839237 
1020	 0,109676870226043 
1021	 0,108786612377059 
1022	 0,108556025539288 
1023	 0,112422371483263 
1024	 0,114698272312476 
1025	 0,11404685111829 
1026	 0,114553315094994 
1027	 0,11439730601544 
1028	 0,112748339023734 
1029	 0,112780917780623 
1030	 0,113089583210315 
1031	 0,111815427939024 
1032	 0,111352043174473 
1033	 0,113164611368494 
1034	 0,11918111724006 
1035	 0,122913965917064 
1036	 0,122205808360417 
1037	 0,11651784688088 
1038	 0,115040672110319 
1039	 0,120072406408288 
1040	 0,119288380105188 
1041	 0,115065601103787 
1042	 0,111055622613386 
1043	 0,114596657987208 
1044	 0,120675458249557 
1045	 0,120897858065091 
1046	 0,115293562775969 
1047	 0,111732896787345 
1048	 0,129374587740543 
1049	 0,13375635960987 
1050	 0,121240119885937 
1051	 0,120946936596922 
1052	 0,122020399511672 
1053	 0,119455082300559 
1054	 0,115879986926537 
1055	 0,11683774721311 
1056	 0,125447585174762 
1057	 0,131159990308127 
1058	 0,127644272325512 
1059	 0,109731958293234 
1060	 0,109531702703431 
1061	 0,121432492881072 
1062	 0,116641137721868 
1063	 0,109135459326809 
1064	 0,10595176704393 
1065	 0,117300640470175 
1066	 0,130219373015746 
1067	 0,133074977710601 
1068	 9,88547661791099E-02 
1069	 8,64542864932264E-02 
1070	 0,131581177024555 
1071	 0,12823161739577 
1072	 0,10901146908651 
1073	 0,122381016358851 
1074	 0,130250682371276 
1075	 0,129520237182929 
