Wavelength	SCORFF200520.asd
325	 0,33871192845717 
326	 0,303118964115076 
327	 0,175594157195879 
328	 2,75911470499132E-02 
329	 7,81465020149534E-02 
330	 0,17183838096894 
331	 0,195340947642203 
332	 0,101817172654723 
333	 1,80544032613319E-02 
334	 0,188239149838224 
335	 0,26695312534715 
336	 0,151436956081765 
337	 7,43860274593254E-02 
338	 2,37108622707286E-03 
339	-4,55615826926742E-02 
340	-4,18319330120413E-03 
341	 6,34083952056952E-02 
342	 4,33195391193615E-02 
343	 6,65304055428444E-02 
344	 0,131532940909304 
345	 9,27961482558139E-02 
346	 5,39653272272124E-02 
347	 0,115895142842337 
348	 0,102822626249116 
349	 0,043111162202552 
350	 6,79540632096192E-02 
351	 0,100695475572605 
352	 0,104963853146335 
353	 0,102966764429691 
354	 8,26863160923807E-02 
355	 2,59542643012253E-02 
356	 5,73181479478169E-02 
357	 0,136848073267025 
358	 0,094941923857069 
359	 5,17755689626319E-02 
360	 5,33138551532068E-02 
361	 5,34593679179607E-02 
362	 0,053247199080027 
363	 6,07576957899502E-02 
364	 5,79861362993006E-02 
365	 0,049409653652211 
366	 6,48076307003288E-02 
367	 8,34449077175752E-02 
368	 8,83567591226448E-02 
369	 4,79546078521095E-02 
370	-1,82871847605071E-03 
371	 1,88723359762565E-02 
372	 2,50447182859502E-02 
373	 7,31780226198275E-03 
374	 3,07752872200843E-02 
375	 5,99020778360807E-02 
376	 7,00887679036769E-02 
377	 7,95223204815766E-02 
378	 7,99437500186661E-02 
379	 4,73138684044806E-02 
380	 2,67390221936611E-02 
381	 3,30896713119192E-02 
382	 5,34296296714436E-02 
383	 6,26806010866812E-02 
384	 4,25851268514821E-02 
385	 2,97149423235846E-02 
386	 3,06994535676199E-02 
387	 4,27492675777796E-02 
388	 5,51188820551213E-02 
389	 0,059578372913262 
390	 4,44765839256953E-02 
391	 3,15856035357879E-02 
392	 4,82855749273119E-02 
393	 3,95105512462121E-02 
394	 1,41369325424019E-02 
395	 3,74527627663575E-02 
396	 5,44917908169663E-02 
397	 4,22564153292288E-02 
398	 3,98832954193746E-02 
399	 4,45588811441961E-02 
400	 4,60529961652273E-02 
401	 3,84019522615213E-02 
402	 2,49608322833581E-02 
403	 2,18493534735605E-02 
404	 2,49549163678667E-02 
405	 3,02193180029633E-02 
406	 3,00027680732493E-02 
407	 2,90864663416877E-02 
408	 4,01048909924784E-02 
409	 4,66235709792525E-02 
410	 4,48110583201615E-02 
411	 4,23152307301592E-02 
412	 3,77139050085854E-02 
413	 2,97289044294879E-02 
414	 2,57816733497703E-02 
415	 2,65875779082671E-02 
416	 3,06863578542397E-02 
417	 3,26735038014583E-02 
418	 0,030323136875752 
419	 2,60894535455321E-02 
420	 2,40722567173303E-02 
421	 2,90084918374465E-02 
422	 3,41347809205658E-02 
423	 3,57987013006135E-02 
424	 2,79711219399837E-02 
425	 2,26345394009313E-02 
426	 2,62911455387159E-02 
427	 2,89763413805737E-02 
428	 2,98241325347455E-02 
429	 2,98897050291161E-02 
430	 3,07391564707811E-02 
431	 0,032278498790167 
432	 3,16939288578417E-02 
433	 3,07587421292144E-02 
434	 3,11671846892879E-02 
435	 3,32183722567774E-02 
436	 3,53078128916506E-02 
437	 3,36979175278377E-02 
438	 3,02942387220879E-02 
439	 2,66578078833566E-02 
440	 2,64454139943681E-02 
441	 2,81287006587548E-02 
442	 2,93318636216744E-02 
443	 3,00518991277285E-02 
444	 3,03226902286607E-02 
445	 0,03078802818292 
446	 3,06163173845808E-02 
447	 2,94067068254188E-02 
448	 2,79706513778577E-02 
449	 2,77281366717345E-02 
450	 3,11607859235348E-02 
451	 3,30886841522424E-02 
452	 3,23955488596343E-02 
453	 3,26535094740907E-02 
454	 0,032151470230725 
455	 0,029363101560585 
456	 2,75081444530351E-02 
457	 2,74933443651972E-02 
458	 2,99648756374284E-02 
459	 0,031962365773288 
460	 3,20997250067764E-02 
461	 3,10693141483281E-02 
462	 3,02517209755924E-02 
463	 0,031345547786601 
464	 3,13401556526978E-02 
465	 3,00123851284901E-02 
466	 2,89788078321515E-02 
467	 2,99478617889605E-02 
468	 3,34490502137568E-02 
469	 3,39433283880247E-02 
470	 3,18422886225568E-02 
471	 2,94803588350018E-02 
472	 2,75591558063782E-02 
473	 2,70258770674937E-02 
474	 3,01473143196109E-02 
475	 3,28194711743853E-02 
476	 3,11206799145194E-02 
477	 2,99791559700818E-02 
478	 3,01751344783457E-02 
479	 3,10960945656956E-02 
480	 3,08773326521899E-02 
481	 2,92075832352909E-02 
482	 3,07856970765923E-02 
483	 3,32529618682978E-02 
484	 3,24802872386652E-02 
485	 3,20982383566708E-02 
486	 0,032508534111072 
487	 3,11267269551103E-02 
488	 3,10573850406925E-02 
489	 3,41574557088648E-02 
490	 3,38136730668807E-02 
491	 3,09266420742464E-02 
492	 2,98925318690688E-02 
493	 2,93960993246656E-02 
494	 2,91318667796343E-02 
495	 2,89868121979248E-02 
496	 2,94610777998836E-02 
497	 3,10928628885851E-02 
498	 0,031629789826256 
499	 3,11672155754794E-02 
500	 3,18384810119917E-02 
501	 3,20327533956691E-02 
502	 3,10175013735644E-02 
503	 3,03976934874176E-02 
504	 0,030675537577452 
505	 3,24443564481896E-02 
506	 3,30221202484164E-02 
507	 3,21021690912597E-02 
508	 3,23089157706631E-02 
509	 3,28966295433495E-02 
510	 3,30679370247925E-02 
511	 3,26498551976253E-02 
512	 3,19967712341723E-02 
513	 3,20582808911902E-02 
514	 3,23864071861387E-02 
515	 3,27528710432905E-02 
516	 3,30776989906255E-02 
517	 3,30847935884103E-02 
518	 3,23961827006203E-02 
519	 3,24837820229605E-02 
520	 3,33687615237026E-02 
521	 3,37115501706127E-02 
522	 3,35227139730581E-02 
523	 3,29427400473646E-02 
524	 3,31309975369197E-02 
525	 3,40533193203895E-02 
526	 3,54530333388636E-02 
527	 3,55096032398329E-02 
528	 3,40743046328266E-02 
529	 3,43601887136431E-02 
530	 3,49861405552529E-02 
531	 3,41293093996881E-02 
532	 3,39448583741929E-02 
533	 0,034388614899222 
534	 3,35849013493041E-02 
535	 3,35726032206439E-02 
536	 3,52332089122238E-02 
537	 3,52322590428494E-02 
538	 3,44845934345955E-02 
539	 3,55970192627206E-02 
540	 3,58596406216085E-02 
541	 3,49482374686488E-02 
542	 3,54056904456916E-02 
543	 3,60398680485883E-02 
544	 3,56169766832591E-02 
545	 3,54241365327543E-02 
546	 3,55425480836581E-02 
547	 0,035499928836768 
548	 0,035171497518349 
549	 3,46691753445725E-02 
550	 3,52637113455195E-02 
551	 3,62129181786361E-02 
552	 3,61469026862742E-02 
553	 3,64078261149358E-02 
554	 3,70524743372895E-02 
555	 3,67631657927131E-02 
556	 3,64655906095791E-02 
557	 3,68910513226082E-02 
558	 3,68202138993174E-02 
559	 3,64616830289676E-02 
560	 3,69583732144961E-02 
561	 3,70544579235651E-02 
562	 0,036411677050096 
563	 3,62246012105568E-02 
564	 3,63876739738488E-02 
565	 3,66111024307007E-02 
566	 3,67632185023359E-02 
567	 3,68401012341466E-02 
568	 3,69459048949674E-02 
569	 3,74907088403044E-02 
570	 3,85512022735137E-02 
571	 3,78821963861914E-02 
572	 3,64539933832661E-02 
573	 3,70715932887765E-02 
574	 3,80249208507665E-02 
575	 3,87002201361739E-02 
576	 3,91969293726618E-02 
577	 3,92272625279416E-02 
578	 3,85180283092057E-02 
579	 0,03836143394991 
580	 3,89711735025639E-02 
581	 4,01166809489633E-02 
582	 4,03821966657591E-02 
583	 3,92124255380501E-02 
584	 3,93255515028133E-02 
585	 4,02700629251324E-02 
586	 4,06817927239293E-02 
587	 4,01296619481328E-02 
588	 3,89575529427708E-02 
589	 3,94081862137547E-02 
590	 4,03275302599424E-02 
591	 4,05543841475729E-02 
592	 4,08193314973433E-02 
593	 4,09788590702536E-02 
594	 4,02159235101553E-02 
595	 3,98526779336429E-02 
596	 4,03863563403393E-02 
597	 4,04219478928758E-02 
598	 4,04806262691252E-02 
599	 4,16024807351204E-02 
600	 4,17413129156916E-02 
601	 0,040719470515439 
602	 4,01414776323168E-02 
603	 4,01283723461617E-02 
604	 4,06912050709131E-02 
605	 4,10948219049371E-02 
606	 0,0410989060761 
607	 4,04079864739788E-02 
608	 4,01561032052755E-02 
609	 4,06501096061032E-02 
610	 4,08229740282386E-02 
611	 4,04979462142537E-02 
612	 0,039590833072364 
613	 3,93888298084086E-02 
614	 3,99893858896709E-02 
615	 4,05866593851948E-02 
616	 4,08090729485465E-02 
617	 4,04364054675949E-02 
618	 3,98314139059888E-02 
619	 3,95819785188802E-02 
620	 4,07760453667809E-02 
621	 4,14056633472972E-02 
622	 4,09975562550768E-02 
623	 4,09051457919611E-02 
624	 0,040924789520176 
625	 0,04077840496981 
626	 4,07652076848509E-02 
627	 0,040909492317281 
628	 4,11229526580077E-02 
629	 4,12458286655191E-02 
630	 4,12033866562218E-02 
631	 4,11724133379705E-02 
632	 4,11623393824984E-02 
633	 4,11405286901726E-02 
634	 4,12045306064466E-02 
635	 4,14502911143267E-02 
636	 0,042218159427724 
637	 4,26347045560393E-02 
638	 0,042042509441758 
639	 4,19659636307733E-02 
640	 4,24446975876094E-02 
641	 4,28630774291182E-02 
642	 4,30944035022493E-02 
643	 0,043076078849438 
644	 4,29591470852228E-02 
645	 4,30515735245209E-02 
646	 0,043721565764118 
647	 0,043822814943444 
648	 4,33439009389058E-02 
649	 4,33167233297225E-02 
650	 4,34806867484619E-02 
651	 4,36179493816025E-02 
652	 4,33872658674759E-02 
653	 4,30039132769441E-02 
654	 4,30329641628595E-02 
655	 4,29275625370921E-02 
656	 0,04261578099629 
657	 4,27417526047588E-02 
658	 4,26309314011085E-02 
659	 0,041605319970774 
660	 4,11427415378471E-02 
661	 4,13410959067497E-02 
662	 4,16234749004041E-02 
663	 4,12333614624527E-02 
664	 4,00383159587178E-02 
665	 4,02353371138486E-02 
666	 4,10163138212907E-02 
667	 0,040720369647049 
668	 4,05559910908536E-02 
669	 4,06778607828624E-02 
670	 4,03816312743468E-02 
671	 4,00268697276668E-02 
672	 3,99291194328609E-02 
673	 0,04012824558 
674	 4,04485472702935E-02 
675	 4,04762724762797E-02 
676	 4,04352876711992E-02 
677	 4,03856875450096E-02 
678	 4,01417898874488E-02 
679	 4,01576820748195E-02 
680	 4,09589407754435E-02 
681	 4,11984121692469E-02 
682	 4,09054027675421E-02 
683	 4,13024952482892E-02 
684	 4,16437967230568E-02 
685	 4,15611867025576E-02 
686	 4,17655907947823E-02 
687	 4,23114732938681E-02 
688	 4,31527756048118E-02 
689	 4,37187094216645E-02 
690	 4,39937948749362E-02 
691	 4,48160212162504E-02 
692	 4,57440758088484E-02 
693	 4,63805623478593E-02 
694	 4,72321380770553E-02 
695	 0,048445280874972 
696	 5,01442466387965E-02 
697	 5,19609676978991E-02 
698	 5,37265768528736E-02 
699	 5,55671498037706E-02 
700	 5,74196033136918E-02 
701	 5,91974804232602E-02 
702	 6,10842746142658E-02 
703	 6,31136124518761E-02 
704	 6,52479233896911E-02 
705	 6,73595441833436E-02 
706	 6,93696182492078E-02 
707	 7,13895580437585E-02 
708	 0,073431288679299 
709	 7,55207181915637E-02 
710	 7,71650834186156E-02 
711	 7,84295807845001E-02 
712	 8,03872098562859E-02 
713	 8,22037902424774E-02 
714	 8,31244399290485E-02 
715	 8,43568566232227E-02 
716	 8,59423302781182E-02 
717	 8,74337282465794E-02 
718	 8,84896669324382E-02 
719	 8,90820368150943E-02 
720	 9,00974143960272E-02 
721	 9,13374439201531E-02 
722	 9,24403816826558E-02 
723	 9,31718005269164E-02 
724	 9,35534031339594E-02 
725	 9,38349178556403E-02 
726	 9,43799677698593E-02 
727	 9,53560617078403E-02 
728	 9,60893016542704E-02 
729	 9,65816503663446E-02 
730	 9,70164324238461E-02 
731	 9,74852429188276E-02 
732	 9,80112896724761E-02 
733	 0,098540256805783 
734	 9,89088895496669E-02 
735	 9,89986549352318E-02 
736	 9,90969777831164E-02 
737	 0,099383463443566 
738	 0,100215113158796 
739	 0,100732440624356 
740	 0,100670611916532 
741	 0,100624199896452 
742	 0,100835080280344 
743	 0,101501019610344 
744	 0,101768528030489 
745	 0,101650441332463 
746	 0,101885197030319 
747	 0,101946420613975 
748	 0,101684737999869 
749	 0,102086829443289 
750	 0,1027614490737 
751	 0,102940686918181 
752	 0,103022349232557 
753	 0,103152899716498 
754	 0,103500199033378 
755	 0,103794525523998 
756	 0,10384468974425 
757	 0,103800159416424 
758	 0,103869155899542 
759	 0,104455189918062 
760	 0,104725790176901 
761	 0,104541807042383 
762	 0,104672109418463 
763	 0,104970131048038 
764	 0,105251163571937 
765	 0,105394601927331 
766	 0,105471191981442 
767	 0,105715096701786 
768	 0,106147663835418 
769	 0,10663332580667 
770	 0,106350215610986 
771	 0,105960859477047 
772	 0,10630828532996 
773	 0,106655549135278 
774	 0,10687374742065 
775	 0,107106603376806 
776	 0,10735280157143 
777	 0,107569385634518 
778	 0,107455855646508 
779	 0,1072807661826 
780	 0,107481073162397 
781	 0,107487520558649 
782	 0,107315090181355 
783	 0,107562985387235 
784	 0,107858287872103 
785	 0,107971370812252 
786	 0,108209203234231 
787	 0,108469120653515 
788	 0,108496386262116 
789	 0,108565069220597 
790	 0,10876543463616 
791	 0,10913077781141 
792	 0,109316087200552 
793	 0,109100952032152 
794	 0,109249071306235 
795	 0,109572566699232 
796	 0,109356989324992 
797	 0,109377246565583 
798	 0,109750167939823 
799	 0,109701111817546 
800	 0,109666882668548 
801	 0,11005789063336 
802	 0,110248723271046 
803	 0,110221896866624 
804	 0,110204310853569 
805	 0,110388224853556 
806	 0,110771772361494 
807	 0,110860623954595 
808	 0,11080445014585 
809	 0,11081597117609 
810	 0,111110292587372 
811	 0,111606253402303 
812	 0,111992845306901 
813	 0,112088846011631 
814	 0,111904976315127 
815	 0,112084436065693 
816	 0,112370366072593 
817	 0,112392197520463 
818	 0,112291797550427 
819	 0,112275295428503 
820	 0,112906733843743 
821	 0,113298495830988 
822	 0,113081474545462 
823	 0,112882436191217 
824	 0,112915527413287 
825	 0,113357261960631 
826	 0,11401544087995 
827	 0,114492922111892 
828	 0,113670442070314 
829	 0,113373930465696 
830	 0,114322649670268 
831	 0,114291106817363 
832	 0,113854399412223 
833	 0,114114752956452 
834	 0,114635976435229 
835	 0,115182709902474 
836	 0,115385013663763 
837	 0,115291979580726 
838	 0,115014083958966 
839	 0,115079085601869 
840	 0,115364029940538 
841	 0,115599348898022 
842	 0,115730755829553 
843	 0,115723905368183 
844	 0,115527970432568 
845	 0,115494790806736 
846	 0,115770482833848 
847	 0,115868751299041 
848	 0,115838637673134 
849	 0,115832640275463 
850	 0,115794889166233 
851	 0,115739576955154 
852	 0,115748915416853 
853	 0,115712988396354 
854	 0,115561507014704 
855	 0,115169395454253 
856	 0,115075054693771 
857	 0,115995231771161 
858	 0,116192098732928 
859	 0,115582899399548 
860	 0,115397906492822 
861	 0,115256267786192 
862	 0,115030210037063 
863	 0,115016416390327 
864	 0,11525733226029 
865	 0,115754794003196 
866	 0,115979228543476 
867	 0,11606090515891 
868	 0,116950958546753 
869	 0,11721490034037 
870	 0,116434438043438 
871	 0,116603806398217 
872	 0,117124589744446 
873	 0,117063471925942 
874	 0,116945833152055 
875	 0,116965934741489 
876	 0,117326936774606 
877	 0,117919367271416 
878	 0,11858160735252 
879	 0,118817393621809 
880	 0,118809502783548 
881	 0,11879334762783 
882	 0,118382074980361 
883	 0,117954524779351 
884	 0,118658947300297 
885	 0,119359336237947 
886	 0,119704459458116 
887	 0,120306523504578 
888	 0,120642742493265 
889	 0,120280076009821 
890	 0,120466191843211 
891	 0,120862385954555 
892	 0,12012083046965 
893	 0,120179696921062 
894	 0,121316132997986 
895	 0,121853395759272 
896	 0,121817732177567 
897	 0,121282919290909 
898	 0,120228756726045 
899	 0,119537676285157 
900	 0,120729112087057 
901	 0,121033115500192 
902	 0,120152324256802 
903	 0,120262352666025 
904	 0,120510505059298 
905	 0,120424239118863 
906	 0,120727943788595 
907	 0,12095555033011 
908	 0,120358499705998 
909	 0,120213960641965 
910	 0,120746536940684 
911	 0,121746615033568 
912	 0,121864104679228 
913	 0,120766303497988 
914	 0,120689588168626 
915	 0,121391041577143 
916	 0,122292652470052 
917	 0,122127160469892 
918	 0,121356266601219 
919	 0,121847761882558 
920	 0,122533364711891 
921	 0,122973590489137 
922	 0,122951133130239 
923	 0,122674653086954 
924	 0,122403462031863 
925	 0,122744639574656 
926	 0,123249766645095 
927	 0,122963304128869 
928	 0,122283912814391 
929	 0,121613630491295 
930	 0,121919398387162 
931	 0,122395500338912 
932	 0,122604831292396 
933	 0,12322737385969 
934	 0,1236359146687 
935	 0,123025798149145 
936	 0,124058343897003 
937	 0,125689341532679 
938	 0,122993736878814 
939	 0,122182419472784 
940	 0,124695760677888 
941	 0,124601326581296 
942	 0,123864035720699 
943	 0,124373834608094 
944	 0,123922681738718 
945	 0,123107357530389 
946	 0,123630686219577 
947	 0,12418740486281 
948	 0,124399492999807 
949	 0,124541288488436 
950	 0,123657584953697 
951	 0,121743292146255 
952	 0,122447259339617 
953	 0,123578705594395 
954	 0,122209839908584 
955	 0,122592710912334 
956	 0,124275116072114 
957	 0,123882395591486 
958	 0,123097232359324 
959	 0,122399900333688 
960	 0,12106552519381 
961	 0,121372516791223 
962	 0,124445563147496 
963	 0,12473861203097 
964	 0,122970973644643 
965	 0,121509759041279 
966	 0,120818584791633 
967	 0,120994859492764 
968	 0,121625547906096 
969	 0,121968155663031 
970	 0,121834276670895 
971	 0,122540023131423 
972	 0,122500851449948 
973	 0,120561091078593 
974	 0,121032853311479 
975	 0,122634236908893 
976	 0,12176258977635 
977	 0,121216240349339 
978	 0,121617369246294 
979	 0,122499001814403 
980	 0,122692098790546 
981	 0,122147475109016 
982	 0,124620858270624 
983	 0,126208113211721 
984	 0,123196680930123 
985	 0,122753064143821 
986	 0,124906411161606 
987	 0,127134968542224 
988	 0,126869383898401 
989	 0,124568067840417 
990	 0,125151544848486 
991	 0,125927218826252 
992	 0,12562932101917 
993	 0,125507580276013 
994	 0,12617360808803 
995	 0,127838294780701 
996	 0,125993941688754 
997	 0,12333012309955 
998	 0,126628013297111 
999	 0,129137352035049 
1000	 0,12958292312895 
1001	 0,131107582132445 
1002	 0,130242723262477 
1003	 0,126498442789099 
1004	 0,127503931994633 
1005	 0,128889031671675 
1006	 0,126328600569196 
1007	 0,127184301398011 
1008	 0,130264276696825 
1009	 0,131329618636949 
1010	 0,130824821070308 
1011	 0,12920528207656 
1012	 0,127511270480593 
1013	 0,127887896096834 
1014	 0,130581908674244 
1015	 0,131494737602306 
1016	 0,131134169522771 
1017	 0,130313667737543 
1018	 0,130481562692911 
1019	 0,130864097381366 
1020	 0,130007497688785 
1021	 0,132028559700746 
1022	 0,135975086817563 
1023	 0,13684880595862 
1024	 0,136181996106417 
1025	 0,134591687432133 
1026	 0,132389570986584 
1027	 0,132655567855702 
1028	 0,13646302879271 
1029	 0,136456994644059 
1030	 0,13517328356003 
1031	 0,136282268983659 
1032	 0,134886545831691 
1033	 0,13337905352818 
1034	 0,138318313862371 
1035	 0,139948255735291 
1036	 0,13717057222408 
1037	 0,136185107842035 
1038	 0,138692736410563 
1039	 0,142881769412087 
1040	 0,134229472910952 
1041	 0,128902920110016 
1042	 0,138593838345629 
1043	 0,138318905690041 
1044	 0,133459170303136 
1045	 0,135824212115732 
1046	 0,137755667214077 
1047	 0,141073208707953 
1048	 0,153874188643381 
1049	 0,154783723544401 
1050	 0,142440723735759 
1051	 0,138472367279603 
1052	 0,137780176690751 
1053	 0,138710412699901 
1054	 0,146627424380037 
1055	 0,153165313282804 
1056	 0,151026559149076 
1057	 0,144386286529869 
1058	 0,136482646835886 
1059	 0,13206516065229 
1060	 0,141271923897303 
1061	 0,15556296007243 
1062	 0,152073547803628 
1063	 0,144901205296225 
1064	 0,140533337813788 
1065	 0,14703533687919 
1066	 0,147368423425973 
1067	 0,136398669600765 
1068	 0,129505694720593 
1069	 0,131790422294656 
1070	 0,144239730733308 
1071	 0,149287148136032 
1072	 0,155253069392667 
1073	 0,171610149632402 
1074	 0,168083881948821 
1075	 0,150557898330342 
