Wavelength	SCORFF200057.asd
325	 2,02654585404432E-02 
326	 0,281351657009251 
327	 0,356712817378415 
328	 0,208347843813439 
329	 0,202622678916201 
330	 0,225386501054261 
331	 0,18023295261789 
332	 0,108456662577717 
333	 6,03708585843697E-02 
334	 8,08020937930009E-02 
335	 9,67908925691078E-02 
336	 7,75092520311099E-02 
337	 1,96902005785993E-02 
338	-1,14776094712743E-03 
339	 0,117081771395896 
340	 0,203256280121124 
341	 0,20568426365228 
342	 7,50727291905849E-02 
343	 6,53899083534054E-02 
344	 0,188933065629495 
345	 0,142531567950581 
346	 6,61949918094499E-02 
347	 0,103680068700538 
348	 0,118742863774182 
349	 0,109200597769859 
350	 0,133224137289208 
351	 0,136565045695588 
352	 0,105031417358793 
353	 8,73007605762694E-02 
354	 8,68351347772947E-02 
355	 0,107113570975 
356	 9,50808882769681E-02 
357	 6,57660214643875E-02 
358	 9,32837889593196E-02 
359	 9,93545384473498E-02 
360	 5,36945501760331E-02 
361	-5,3163125749863E-03 
362	-2,26548208818349E-02 
363	 6,65997057492078E-02 
364	 0,104715174528927 
365	 8,11457096120628E-02 
366	 8,03194642672789E-02 
367	 7,71174271790039E-02 
368	 5,72248482458644E-02 
369	 2,72917238644337E-02 
370	 0,010370833516343 
371	 5,14168235036243E-02 
372	 6,55526208707142E-02 
373	 4,03112988642731E-02 
374	 2,91409918100697E-02 
375	 3,76552494069124E-02 
376	 0,064824730394628 
377	 6,57947471372841E-02 
378	 4,69408312829083E-02 
379	 3,53446775523862E-02 
380	 3,55046563105477E-02 
381	 4,83514466332396E-02 
382	 6,30799613889962E-02 
383	 6,56253505998414E-02 
384	 4,70487622064028E-02 
385	 3,89491427545213E-02 
386	 4,52624801303849E-02 
387	 6,03206813966878E-02 
388	 6,95003046506354E-02 
389	 6,53589215158975E-02 
390	 4,90128502110121E-02 
391	 3,13789207503845E-02 
392	 2,70056675433376E-02 
393	 1,86018987528948E-02 
394	 9,60537101190705E-03 
395	 2,33800958882781E-02 
396	 3,48575824509275E-02 
397	 3,40246427982316E-02 
398	 4,39360006822307E-02 
399	 5,07577354381787E-02 
400	 3,07743602872713E-02 
401	 2,43446478790362E-02 
402	 0,033801073797197 
403	 2,33496588972817E-02 
404	 2,09195149003154E-02 
405	 4,13026541279354E-02 
406	 3,30480102507303E-02 
407	 1,24292655961186E-02 
408	 2,70157180572423E-02 
409	 3,84571588185086E-02 
410	 3,71993845108095E-02 
411	 3,54732362141938E-02 
412	 3,19531012001147E-02 
413	 2,53666627453631E-02 
414	 2,55467262275653E-02 
415	 3,01874738364775E-02 
416	 0,029203065371847 
417	 2,81692624514719E-02 
418	 2,83694354314109E-02 
419	 2,34861507846278E-02 
420	 1,81700883365995E-02 
421	 1,88485283379117E-02 
422	 2,30755001721574E-02 
423	 2,80437279117691E-02 
424	 2,78689304002688E-02 
425	 2,54542812725163E-02 
426	 2,27967944003897E-02 
427	 2,09417001099109E-02 
428	 2,03418711890479E-02 
429	 2,10875956684776E-02 
430	 2,43022448062187E-02 
431	 0,028671239808085 
432	 2,80912408727839E-02 
433	 2,57968289297993E-02 
434	 2,49562306396831E-02 
435	 0,02572284649689 
436	 2,73462176236982E-02 
437	 2,81251576719191E-02 
438	 2,72507260067141E-02 
439	 2,48541653275053E-02 
440	 2,44003422766815E-02 
441	 2,39595040524354E-02 
442	 2,07140149453967E-02 
443	 2,12938720047725E-02 
444	 2,54175989089764E-02 
445	 2,74025195748133E-02 
446	 2,59484923722781E-02 
447	 2,12281699422825E-02 
448	 2,23412094626146E-02 
449	 2,66210237972843E-02 
450	 2,66971704691591E-02 
451	 2,70040915290195E-02 
452	 2,81373809599116E-02 
453	 2,72141181367541E-02 
454	 2,53714733668894E-02 
455	 2,37718863997924E-02 
456	 2,19206068425374E-02 
457	 2,04817630491716E-02 
458	 2,09570299481531E-02 
459	 2,32320735316112E-02 
460	 2,64323625555141E-02 
461	 2,60336527129252E-02 
462	 2,40259778765432E-02 
463	 2,36607213455478E-02 
464	 2,16472182974847E-02 
465	 0,0186872877571 
466	 1,95988204876636E-02 
467	 2,14978474768548E-02 
468	 2,24056341026184E-02 
469	 2,38411384103363E-02 
470	 2,44480174932398E-02 
471	 2,10032099825747E-02 
472	 1,87447836723695E-02 
473	 1,94911055708739E-02 
474	 2,25031744163344E-02 
475	 0,025116468186275 
476	 2,47831789933924E-02 
477	 2,17628689860938E-02 
478	 1,83469812024978E-02 
479	 2,05801412757248E-02 
480	 2,20353479891042E-02 
481	 2,03028283143561E-02 
482	 2,13834250828473E-02 
483	 2,33121454700817E-02 
484	 2,23574855882014E-02 
485	 2,12096171405628E-02 
486	 2,08802541010607E-02 
487	 2,22215274915558E-02 
488	 0,023730104142481 
489	 2,41484032043386E-02 
490	 2,32240747521942E-02 
491	 2,18827018672459E-02 
492	 2,23863886321423E-02 
493	 2,22861912348888E-02 
494	 2,10650875135903E-02 
495	 2,05826853251187E-02 
496	 0,021061640341873 
497	 0,022544925087883 
498	 0,02326435287221 
499	 2,27299500472654E-02 
500	 2,06633932866402E-02 
501	 1,97254366560891E-02 
502	 2,11308859125016E-02 
503	 2,11251198703534E-02 
504	 2,05787452133515E-02 
505	 2,19264104919695E-02 
506	 2,30138704724207E-02 
507	 2,30646557200948E-02 
508	 2,17770657366599E-02 
509	 2,02277585840062E-02 
510	 0,019461155736086 
511	 2,00616568737608E-02 
512	 2,15921913826729E-02 
513	 2,28538511385352E-02 
514	 2,34308532155799E-02 
515	 2,30758496493983E-02 
516	 2,17870725823751E-02 
517	 2,08182332904544E-02 
518	 2,18595298982148E-02 
519	 2,21141131219374E-02 
520	 2,14139206612494E-02 
521	 2,20837190422578E-02 
522	 2,25170444404457E-02 
523	 2,16689959510895E-02 
524	 2,16126866282768E-02 
525	 2,21676216144982E-02 
526	 2,22175640551153E-02 
527	 2,20502185462896E-02 
528	 2,18495605507622E-02 
529	 0,022310306077106 
530	 2,24906826862527E-02 
531	 2,13003365347201E-02 
532	 0,020666295412329 
533	 2,08086938843152E-02 
534	 2,08827924598735E-02 
535	 2,10293528994016E-02 
536	 2,12285235297643E-02 
537	 2,06916364264425E-02 
538	 2,00640744974986E-02 
539	 2,06677067145141E-02 
540	 0,021639408619356 
541	 2,24266022520899E-02 
542	 2,19626256867782E-02 
543	 2,12504994667526E-02 
544	 2,12984384272888E-02 
545	 2,13385903096511E-02 
546	 2,12793191047745E-02 
547	 2,12924352374966E-02 
548	 2,12735230141638E-02 
549	 2,12012474725204E-02 
550	 0,021309731031799 
551	 2,14150482045121E-02 
552	 2,11784896097227E-02 
553	 2,13046784925875E-02 
554	 2,17032460976594E-02 
555	 2,11454457067265E-02 
556	 0,020652211143656 
557	 2,10221005450875E-02 
558	 2,08594715672054E-02 
559	 2,03601662906822E-02 
560	 0,020715469517001 
561	 2,07090788601723E-02 
562	 2,00276056201203E-02 
563	 1,99092226450752E-02 
564	 2,00453705715212E-02 
565	 1,98775399650803E-02 
566	 2,00338613980063E-02 
567	 0,020544474776773 
568	 2,10235040146129E-02 
569	 2,12939053396791E-02 
570	 0,021224183310549 
571	 2,08279325565741E-02 
572	 2,04969783460795E-02 
573	 2,10503272556978E-02 
574	 2,15421029177386E-02 
575	 0,021683984326068 
576	 2,19493689932873E-02 
577	 2,21457765861057E-02 
578	 2,20444575986716E-02 
579	 2,24721238927993E-02 
580	 2,31970757477166E-02 
581	 2,28679074135929E-02 
582	 2,26237138146341E-02 
583	 0,023047763780661 
584	 2,32146410016382E-02 
585	 2,32285550484125E-02 
586	 2,35421940050783E-02 
587	 2,31359803845166E-02 
588	 2,22334011015567E-02 
589	 2,31948523480409E-02 
590	 2,44206355888348E-02 
591	 2,43549440788124E-02 
592	 2,41709711929366E-02 
593	 2,40111446952957E-02 
594	 2,35944455216812E-02 
595	 2,32922110360495E-02 
596	 2,33293089189599E-02 
597	 0,023924484572785 
598	 2,43896140817732E-02 
599	 2,36779396783978E-02 
600	 2,33831895003291E-02 
601	 2,36767263566495E-02 
602	 2,33322869729579E-02 
603	 2,28818920670077E-02 
604	 2,27902292713181E-02 
605	 2,32458671533666E-02 
606	 2,37896866044261E-02 
607	 2,32594209781386E-02 
608	 2,25755306326352E-02 
609	 2,21707464634965E-02 
610	 0,022293839509324 
611	 2,25904234128557E-02 
612	 2,25977693479492E-02 
613	 2,23117816122057E-02 
614	 2,18953528595609E-02 
615	 2,18818223636555E-02 
616	 2,20225763989684E-02 
617	 2,21340976757115E-02 
618	 2,20993602406846E-02 
619	 2,20116500056222E-02 
620	 2,20958974193914E-02 
621	 2,21937648341251E-02 
622	 2,22805442832645E-02 
623	 2,24983775668024E-02 
624	 2,26950780539199E-02 
625	 0,022708963272765 
626	 0,022566742271466 
627	 2,24036918265609E-02 
628	 2,26343440262888E-02 
629	 2,25785239185899E-02 
630	 2,20288060371721E-02 
631	 2,21952268689581E-02 
632	 2,27491106078197E-02 
633	 2,29294850255862E-02 
634	 2,30893702508513E-02 
635	 2,33151029701205E-02 
636	 2,36376948375852E-02 
637	 2,37989139993365E-02 
638	 2,36296391618648E-02 
639	 2,38908615909189E-02 
640	 0,024481213501719 
641	 2,48436244794059E-02 
642	 2,48582344500139E-02 
643	 2,45811049524517E-02 
644	 2,47890519822219E-02 
645	 2,51994393653754E-02 
646	 2,53479855779588E-02 
647	 2,55168637819568E-02 
648	 2,56576100223168E-02 
649	 2,53802890936694E-02 
650	 2,51505580971545E-02 
651	 2,52327784258611E-02 
652	 2,49476814182702E-02 
653	 2,45091324300262E-02 
654	 2,45630239562313E-02 
655	 2,45762578242448E-02 
656	 2,43707905150275E-02 
657	 2,39702039982457E-02 
658	 2,36994741167293E-02 
659	 2,38600534928494E-02 
660	 2,34780717383345E-02 
661	 0,022773357225928 
662	 2,31320521836738E-02 
663	 2,28576589547337E-02 
664	 2,13980807077049E-02 
665	 2,13398361287015E-02 
666	 0,021972324128335 
667	 2,17263482137983E-02 
668	 2,13612600558384E-02 
669	 2,12105944656993E-02 
670	 2,18571137446202E-02 
671	 0,022286550357638 
672	 0,021751108940194 
673	 2,16039134064871E-02 
674	 2,18379204590662E-02 
675	 2,18693851336235E-02 
676	 2,17728804417872E-02 
677	 2,16106459483578E-02 
678	 2,16171991700237E-02 
679	 2,19284215621157E-02 
680	 2,26620080033671E-02 
681	 0,022813855264839 
682	 2,23962042119768E-02 
683	 2,22590644055995E-02 
684	 2,22836511266986E-02 
685	 2,24264375074255E-02 
686	 2,27919689541006E-02 
687	 2,32302970163535E-02 
688	 2,34635864020822E-02 
689	 2,37517574678371E-02 
690	 0,024210184146303 
691	 2,49458759795369E-02 
692	 2,57516931327234E-02 
693	 2,64675614696446E-02 
694	 2,75270923029364E-02 
695	 2,90986997713049E-02 
696	 3,13608304537484E-02 
697	 0,033904778283982 
698	 3,66307865149425E-02 
699	 4,00589775111062E-02 
700	 4,40000880825744E-02 
701	 4,81565282211325E-02 
702	 5,26261342797521E-02 
703	 0,057554028528524 
704	 6,34457094055748E-02 
705	 6,94101191266691E-02 
706	 7,49091932471289E-02 
707	 0,08064241945977 
708	 8,67280288357862E-02 
709	 9,32077098992088E-02 
710	 9,94796784294116E-02 
711	 0,105419890041857 
712	 0,11150970205011 
713	 0,117435974995208 
714	 0,122913847105086 
715	 0,128482261222378 
716	 0,133943962837057 
717	 0,138507979773073 
718	 0,143016701231413 
719	 0,147726380389338 
720	 0,151819564733034 
721	 0,155689675478616 
722	 0,159935969713219 
723	 0,16364005747411 
724	 0,166700326145452 
725	 0,169549589496415 
726	 0,17233212048076 
727	 0,175090070884218 
728	 0,177310417160947 
729	 0,179124173655739 
730	 0,180847371046456 
731	 0,182915471812605 
732	 0,185245969380005 
733	 0,186874779473632 
734	 0,188073768092417 
735	 0,189145315503281 
736	 0,190429889765954 
737	 0,191856488342471 
738	 0,193104184529251 
739	 0,194044325132889 
740	 0,194698844815727 
741	 0,195528989236502 
742	 0,196555179852179 
743	 0,197735123502261 
744	 0,198235186502604 
745	 0,198338655392508 
746	 0,199622232112136 
747	 0,200469766441469 
748	 0,200197019940027 
749	 0,20051490995084 
750	 0,201288872340523 
751	 0,201992015944178 
752	 0,202607891002566 
753	 0,203147694100493 
754	 0,203796263890104 
755	 0,204363034645907 
756	 0,20471213652385 
757	 0,204920161224884 
758	 0,205216530975482 
759	 0,20605542718427 
760	 0,206677630707156 
761	 0,206899353410506 
762	 0,207132258884789 
763	 0,207636269300397 
764	 0,208571961730075 
765	 0,208888271510191 
766	 0,208667442612739 
767	 0,208617062519824 
768	 0,208866931448792 
769	 0,209429679025619 
770	 0,209843401505927 
771	 0,210120167116054 
772	 0,210331158752903 
773	 0,210682935350793 
774	 0,211156801349288 
775	 0,211569731573383 
776	 0,211788968461419 
777	 0,211762199545618 
778	 0,211689473292864 
779	 0,211684279218021 
780	 0,211860729472024 
781	 0,212209850470975 
782	 0,212576278248653 
783	 0,212420303601371 
784	 0,212393586951373 
785	 0,212877640997185 
786	 0,213181416705669 
787	 0,213354988987535 
788	 0,213679268780575 
789	 0,21384081856582 
790	 0,213828625845866 
791	 0,214011465935717 
792	 0,214104162767401 
793	 0,213950917046674 
794	 0,2145236231177 
795	 0,21539831285272 
796	 0,215335015987135 
797	 0,215281503711183 
798	 0,215452593638501 
799	 0,215274073053281 
800	 0,215161332888973 
801	 0,215517527324196 
802	 0,216141351974255 
803	 0,216684697170427 
804	 0,216328757329711 
805	 0,216304819198241 
806	 0,216923086147027 
807	 0,217080767053079 
808	 0,217188130586095 
809	 0,217733536985942 
810	 0,218000552472701 
811	 0,217967578810617 
812	 0,217929640318829 
813	 0,21824045484356 
814	 0,218945091090085 
815	 0,219252759367953 
816	 0,219336577338254 
817	 0,219488870497728 
818	 0,219595335082312 
819	 0,219704627691606 
820	 0,220026921066869 
821	 0,220197417219349 
822	 0,220127436504223 
823	 0,220460568648317 
824	 0,220890801798942 
825	 0,220953464689893 
826	 0,221295537496697 
827	 0,221881788732466 
828	 0,222123503477522 
829	 0,222279287946264 
830	 0,22248585787863 
831	 0,222727650322892 
832	 0,222978348732283 
833	 0,223199544235525 
834	 0,22374396708139 
835	 0,224323457503061 
836	 0,223705078706616 
837	 0,223191014922924 
838	 0,223533605807507 
839	 0,224499287126042 
840	 0,225385012241423 
841	 0,225272588925866 
842	 0,22496456248134 
843	 0,224793678555007 
844	 0,225073249549146 
845	 0,225493613832226 
846	 0,225805911386385 
847	 0,22567464759817 
848	 0,225324725577925 
849	 0,225124953763705 
850	 0,22556897561709 
851	 0,226304453754005 
852	 0,22573577547183 
853	 0,225161281610133 
854	 0,225301138691024 
855	 0,225844956630515 
856	 0,226318595078778 
857	 0,226138135169573 
858	 0,226027115057479 
859	 0,22610933386998 
860	 0,226191148162126 
861	 0,226068046947869 
862	 0,225770277770781 
863	 0,226262026405287 
864	 0,22694244178093 
865	 0,226917656622257 
866	 0,226942543966737 
867	 0,227215768516879 
868	 0,227876901895285 
869	 0,228033621518904 
870	 0,227488291325642 
871	 0,227956975706571 
872	 0,228620015817683 
873	 0,22834390011574 
874	 0,228586434945286 
875	 0,229369947728806 
876	 0,229867778653787 
877	 0,230114573782443 
878	 0,230218748817976 
879	 0,230836597942854 
880	 0,231609018219185 
881	 0,232070544356951 
882	 0,231949820454691 
883	 0,231553657143549 
884	 0,231827766734926 
885	 0,232070643006154 
886	 0,232147979277457 
887	 0,232712630210755 
888	 0,233182425785355 
889	 0,233023177109609 
890	 0,233040173123797 
891	 0,233054340660906 
892	 0,232241668902196 
893	 0,232343873354906 
894	 0,23351139400437 
895	 0,233770237824547 
896	 0,233437242532269 
897	 0,232863767366139 
898	 0,23234500009831 
899	 0,23216969493461 
900	 0,232718900748691 
901	 0,232896689316936 
902	 0,232641126297843 
903	 0,233092389439761 
904	 0,233446807341174 
905	 0,233269193843369 
906	 0,233345515491013 
907	 0,233480440041637 
908	 0,233271983889297 
909	 0,232748702274351 
910	 0,232295548422796 
911	 0,233146439178809 
912	 0,233535830058055 
913	 0,232793395948008 
914	 0,232388310687914 
915	 0,232412819123776 
916	 0,23277682836457 
917	 0,232544355519963 
918	 0,232157046117333 
919	 0,233356399022724 
920	 0,233857363601274 
921	 0,233200750963775 
922	 0,233381661764637 
923	 0,233552449315529 
924	 0,233039836681902 
925	 0,233187695566203 
926	 0,23350070072669 
927	 0,232722916069753 
928	 0,232090747111569 
929	 0,231891157196595 
930	 0,231716987637295 
931	 0,231863339183662 
932	 0,232354609819848 
933	 0,232235213296098 
934	 0,231732760073635 
935	 0,231317871312384 
936	 0,232440600875684 
937	 0,233821633537307 
938	 0,230806814039601 
939	 0,228759913298901 
940	 0,229426914253919 
941	 0,230091620708656 
942	 0,229913250747846 
943	 0,228410649434705 
944	 0,227337767423755 
945	 0,226767259397267 
946	 0,226171442937933 
947	 0,226711689227569 
948	 0,227564593792047 
949	 0,224714936511591 
950	 0,221654011226055 
951	 0,220499340010732 
952	 0,220443727323575 
953	 0,220276525226199 
954	 0,218703454719075 
955	 0,217606766311609 
956	 0,217224538626428 
957	 0,217287933185975 
958	 0,215800106525074 
959	 0,212905780212229 
960	 0,212586704983108 
961	 0,213505458531596 
962	 0,214275763557763 
963	 0,213337378132067 
964	 0,211948940383912 
965	 0,212367088246064 
966	 0,211349308293017 
967	 0,209430184734938 
968	 0,210794294219871 
969	 0,211778271388101 
970	 0,211184955392053 
971	 0,211910461935628 
972	 0,211913400828388 
973	 0,209512792952248 
974	 0,208643715521745 
975	 0,209241794935692 
976	 0,209908559205853 
977	 0,210479052744002 
978	 0,210675966117522 
979	 0,20985401781042 
980	 0,210045244204365 
981	 0,211941560340284 
982	 0,213379867358125 
983	 0,213009298614904 
984	 0,210111321628249 
985	 0,209971265535416 
986	 0,212560474896938 
987	 0,215834719940999 
988	 0,216329436545812 
989	 0,214414387614249 
990	 0,215948790542686 
991	 0,216414227651425 
992	 0,214335346025092 
993	 0,215964556483623 
994	 0,217822371696174 
995	 0,216184202191125 
996	 0,217183762617634 
997	 0,219564167136025 
998	 0,218726422627164 
999	 0,218233017396413 
1000	 0,219327484051691 
1001	 0,223009107211316 
1002	 0,224545489370605 
1003	 0,222250652074235 
1004	 0,221559185333634 
1005	 0,222051571337288 
1006	 0,222850991065355 
1007	 0,223547416673232 
1008	 0,224974691665445 
1009	 0,228815646525172 
1010	 0,229217680574983 
1011	 0,226223970927421 
1012	 0,225113489708031 
1013	 0,226488780289562 
1014	 0,229544959848674 
1015	 0,228424477706172 
1016	 0,225267432486019 
1017	 0,22310195730404 
1018	 0,22913106613799 
1019	 0,23582414012153 
1020	 0,230856179409442 
1021	 0,227115399890459 
1022	 0,227514651601302 
1023	 0,230977705287183 
1024	 0,233800595121074 
1025	 0,234575153790835 
1026	 0,234756019737357 
1027	 0,233468314467995 
1028	 0,230810898460856 
1029	 0,2309282156074 
1030	 0,233123244479555 
1031	 0,235883437669196 
1032	 0,238687119980568 
1033	 0,239912360558799 
1034	 0,236627168784193 
1035	 0,239340823062619 
1036	 0,246850305479081 
1037	 0,24342366047891 
1038	 0,241377982711827 
1039	 0,243768927888816 
1040	 0,235049920121108 
1041	 0,228252338152787 
1042	 0,233558200502938 
1043	 0,235214163527736 
1044	 0,234655942292638 
1045	 0,236698066043542 
1046	 0,239293487355401 
1047	 0,243642437369711 
1048	 0,25321009969518 
1049	 0,257787064449182 
1050	 0,255150566116576 
1051	 0,248591612120144 
1052	 0,245841836990775 
1053	 0,248742877368475 
1054	 0,242824459200449 
1055	 0,240034207715169 
1056	 0,249464022665207 
1057	 0,253033172750567 
1058	 0,252065808895778 
1059	 0,251918583351841 
1060	 0,252008460594813 
1061	 0,249603888044497 
1062	 0,237962627254321 
1063	 0,236933468419998 
1064	 0,247724984523045 
1065	 0,250458093545108 
1066	 0,254684141592625 
1067	 0,258720540056114 
1068	 0,231208728364936 
1069	 0,214281311266403 
1070	 0,23798070975177 
1071	 0,24875197012547 
1072	 0,250113757209539 
1073	 0,252419145698654 
1074	 0,250320661665772 
1075	 0,24855479047472 
