Wavelength	SCORFF200272.asd
325	 0,689018433229197 
326	 0,507665573853817 
327	 0,351572165481157 
328	 0,305716704464698 
329	 0,235556477006207 
330	 0,225540783116155 
331	 0,330272531946172 
332	 0,38778865573067 
333	 0,361309165336556 
334	 0,231093569861282 
335	 0,18556568183535 
336	 0,26826372625553 
337	 0,270172057146889 
338	 0,235393108124391 
339	 0,216984878327721 
340	 0,263386573975349 
341	 0,313803767043308 
342	 0,247442821785584 
343	 0,238143668978056 
344	 0,302513748658777 
345	 0,273255813953488 
346	 0,232477060343169 
347	 0,263404589695131 
348	 0,253611508046171 
349	 0,225884354523508 
350	 0,286189182146447 
351	 0,31736522622137 
352	 0,275633495894457 
353	 0,239360458521703 
354	 0,217655706979062 
355	 0,218052822615417 
356	 0,229493488465335 
357	 0,236176629216897 
358	 0,208549654512746 
359	 0,199201357374862 
360	 0,223681314740376 
361	 0,213284486291394 
362	 0,19798404118529 
363	 0,232585445903124 
364	 0,232087992883249 
365	 0,199314728379631 
366	 0,210119384018059 
367	 0,222137458953186 
368	 0,212280310739221 
369	 0,218720702032682 
370	 0,230474851891372 
371	 0,217489147386429 
372	 0,206268143183764 
373	 0,205065685106114 
374	 0,215479531325336 
375	 0,226087920166439 
376	 0,229501771634054 
377	 0,231020737501677 
378	 0,230808811074898 
379	 0,230070616208181 
380	 0,210325721517352 
381	 0,178197655413119 
382	 0,198720062964644 
383	 0,22808353403869 
384	 0,226178408036733 
385	 0,226210806459405 
386	 0,230760966734025 
387	 0,232546353732701 
388	 0,227661458006027 
389	 0,217025596801887 
390	 0,210953232709697 
391	 0,211184752355585 
392	 0,218927827128013 
393	 0,212885143399092 
394	 0,197065772263902 
395	 0,198194466750632 
396	 0,202898637620506 
397	 0,205107482402827 
398	 0,211306993771459 
399	 0,219194057502879 
400	 0,226024197585371 
401	 0,222293574212917 
402	 0,209834584960662 
403	 0,201586025421362 
404	 0,204922231843305 
405	 0,221278388392871 
406	 0,219215309994372 
407	 0,206586412578076 
408	 0,207370536091063 
409	 0,214011256655841 
410	 0,221566331530785 
411	 0,219645770199356 
412	 0,209999939590093 
413	 0,195831292725871 
414	 0,197894264712345 
415	 0,210906754261703 
416	 0,212661599081629 
417	 0,21310203051939 
418	 0,215331040465203 
419	 0,214570629350314 
420	 0,213018818059869 
421	 0,213850472430242 
422	 0,214057159508908 
423	 0,213179214174083 
424	 0,212212334130535 
425	 0,210249083942544 
426	 0,20726669724269 
427	 0,207801651968516 
428	 0,210533487111446 
429	 0,212082440978525 
430	 0,213708238105995 
431	 0,215308897112434 
432	 0,215878010932203 
433	 0,214589086954482 
434	 0,211143903441312 
435	 0,211643219692524 
436	 0,214604385444092 
437	 0,213643277089357 
438	 0,211538054252916 
439	 0,209941111995265 
440	 0,211929480172418 
441	 0,214584651437796 
442	 0,21395706884381 
443	 0,21377385121461 
444	 0,214256621476456 
445	 0,21289674562156 
446	 0,212489747685565 
447	 0,214382074538167 
448	 0,214200908904012 
449	 0,213100492767168 
450	 0,214219930620078 
451	 0,216697782083287 
452	 0,219523032439817 
453	 0,219720410264172 
454	 0,218222983215494 
455	 0,216184761346323 
456	 0,215453396494235 
457	 0,216230756585873 
458	 0,21811279977182 
459	 0,218546332553963 
460	 0,216966467970355 
461	 0,217970247451153 
462	 0,219101979506803 
463	 0,216569994013261 
464	 0,215274440754793 
465	 0,215977539703136 
466	 0,216763248109288 
467	 0,217294533478035 
468	 0,217342086801937 
469	 0,217486110297347 
470	 0,217320940592375 
471	 0,215674331874008 
472	 0,215337489900025 
473	 0,216878422696795 
474	 0,218148676759517 
475	 0,219207008545681 
476	 0,220168308319619 
477	 0,219629169533642 
478	 0,217974317953907 
479	 0,216895427266069 
480	 0,216081479920873 
481	 0,215598994228808 
482	 0,216411813640145 
483	 0,217783521782734 
484	 0,218519765726677 
485	 0,220082849268425 
486	 0,221751683815163 
487	 0,219387239045338 
488	 0,217764217643545 
489	 0,220141822570911 
490	 0,220107179706536 
491	 0,217994654683217 
492	 0,216766698146886 
493	 0,216483541771081 
494	 0,216980639208089 
495	 0,216330380379414 
496	 0,21606531481985 
497	 0,218007256253962 
498	 0,218760482217138 
499	 0,218160533567988 
500	 0,218344687900612 
501	 0,218005185899823 
502	 0,216799264806461 
503	 0,217850016002458 
504	 0,220191711410957 
505	 0,221543098805715 
506	 0,222423123807353 
507	 0,222814665228343 
508	 0,222293504405769 
509	 0,221751805959413 
510	 0,222026065000175 
511	 0,223473640541952 
512	 0,225045582185245 
513	 0,223811006691465 
514	 0,223148587767894 
515	 0,224234897270136 
516	 0,224396398937362 
517	 0,223940638691307 
518	 0,223651552373936 
519	 0,223589979982869 
520	 0,224052631218904 
521	 0,226023224352042 
522	 0,227505288613462 
523	 0,22715329237987 
524	 0,226907298807852 
525	 0,227081338627497 
526	 0,227735556491443 
527	 0,227741758552677 
528	 0,226940056152987 
529	 0,226856546781582 
530	 0,227144123639818 
531	 0,227264899408417 
532	 0,226124693126376 
533	 0,224463814648556 
534	 0,225252997295398 
535	 0,226714522104487 
536	 0,227590299417345 
537	 0,226742110464531 
538	 0,225474951190455 
539	 0,226475210382936 
540	 0,227280967587317 
541	 0,227195823353311 
542	 0,226779899167696 
543	 0,226507447948123 
544	 0,226804855775646 
545	 0,227338393213428 
546	 0,227982501960908 
547	 0,228769963346973 
548	 0,228905966772878 
549	 0,228172844804731 
550	 0,227989045915804 
551	 0,228395645061775 
552	 0,229206121482895 
553	 0,229595587466713 
554	 0,229407412074537 
555	 0,229232713585313 
556	 0,229001283028957 
557	 0,228658844829804 
558	 0,228344257704333 
559	 0,228150624806181 
560	 0,228281480149466 
561	 0,228228014783132 
562	 0,227769120101217 
563	 0,227008106870097 
564	 0,226299870378002 
565	 0,226069406830393 
566	 0,226611234621103 
567	 0,227638599783882 
568	 0,227823307522336 
569	 0,228454169475292 
570	 0,230190792496497 
571	 0,230046327040876 
572	 0,229189865028332 
573	 0,231190525972223 
574	 0,232996159340087 
575	 0,233797737187463 
576	 0,235416131101381 
577	 0,236829208715238 
578	 0,236826942308114 
579	 0,237586180339572 
580	 0,239160359520388 
581	 0,240032905686927 
582	 0,240911347756912 
583	 0,242119449482091 
584	 0,242947014018431 
585	 0,243673503866351 
586	 0,244979804341769 
587	 0,245883119201137 
588	 0,246372782127171 
589	 0,247849929126844 
590	 0,249261754468004 
591	 0,249619776421822 
592	 0,250199973220286 
593	 0,25091116049244 
594	 0,250687527935346 
595	 0,250940136416746 
596	 0,252052958983421 
597	 0,251811757616304 
598	 0,251065044214414 
599	 0,251423487266901 
600	 0,251609867165583 
601	 0,251399119964059 
602	 0,251341572414181 
603	 0,251135676961899 
604	 0,250592097697019 
605	 0,250513418721536 
606	 0,25056286283794 
607	 0,249602342278155 
608	 0,248459913269269 
609	 0,247503650576047 
610	 0,246780633764553 
611	 0,246416161477961 
612	 0,246535093018303 
613	 0,245876579895682 
614	 0,244648189531213 
615	 0,244647421185465 
616	 0,244823678649596 
617	 0,24454244884856 
618	 0,244535456166485 
619	 0,244694988841487 
620	 0,244618182908012 
621	 0,244614830570747 
622	 0,244687020522153 
623	 0,244349078471242 
624	 0,244051828824245 
625	 0,244266491461083 
626	 0,244435141123224 
627	 0,244513104912793 
628	 0,244766421346694 
629	 0,244893934856231 
630	 0,244839356320461 
631	 0,245362217230655 
632	 0,246131419094891 
633	 0,246467710129281 
634	 0,246848753830895 
635	 0,247498611292081 
636	 0,248800276568687 
637	 0,249888346649198 
638	 0,250101022177275 
639	 0,250873779138511 
640	 0,252154540209825 
641	 0,253145435885743 
642	 0,254053709217717 
643	 0,254868577086279 
644	 0,255169219835712 
645	 0,255544422846214 
646	 0,256798502404579 
647	 0,256764790395256 
648	 0,255469362535389 
649	 0,255040323114449 
650	 0,254578261560408 
651	 0,253508881074556 
652	 0,252227934868274 
653	 0,251164910268338 
654	 0,251170221416552 
655	 0,250459063716803 
656	 0,248644206129051 
657	 0,247280211369556 
658	 0,245558633409951 
659	 0,242639223020219 
660	 0,240831348929367 
661	 0,240109992841965 
662	 0,238935305417584 
663	 0,237387937843566 
664	 0,235618354772985 
665	 0,23468090421539 
666	 0,234167676920869 
667	 0,233243269898173 
668	 0,232343740877278 
669	 0,231624996077494 
670	 0,231293150341853 
671	 0,230815364880999 
672	 0,229855727998238 
673	 0,22977837475131 
674	 0,230301595736442 
675	 0,230225523878967 
676	 0,22995327310257 
677	 0,229684830537928 
678	 0,229789434646198 
679	 0,230174194579541 
680	 0,230680500538694 
681	 0,230869615583895 
682	 0,231002991120832 
683	 0,232221952388344 
684	 0,233733246149301 
685	 0,235102973730557 
686	 0,236848045157672 
687	 0,239033185051672 
688	 0,241666218156943 
689	 0,244427399097059 
690	 0,247402801063226 
691	 0,25125813653075 
692	 0,256133048185418 
693	 0,262104270955677 
694	 0,268835881520934 
695	 0,276105420325282 
696	 0,283507837944026 
697	 0,291935712812166 
698	 0,301628337992974 
699	 0,311521407147971 
700	 0,32172230304793 
701	 0,332525248160268 
702	 0,343384487901016 
703	 0,354092667499337 
704	 0,364663608190672 
705	 0,374941825483044 
706	 0,384807351009387 
707	 0,394277212716427 
708	 0,403292947245607 
709	 0,411680425358067 
710	 0,419894068191601 
711	 0,42798023782458 
712	 0,435325389178632 
713	 0,442311133888242 
714	 0,449270202197138 
715	 0,455381366706768 
716	 0,460789304482823 
717	 0,466320265088224 
718	 0,471365443736349 
719	 0,47568092027613 
720	 0,47930760239771 
721	 0,482817800807417 
722	 0,486922405095358 
723	 0,490350728880693 
724	 0,49292350595729 
725	 0,495085885997024 
726	 0,49741438861633 
727	 0,500178010494186 
728	 0,502317490503484 
729	 0,503901853294351 
730	 0,505304189972385 
731	 0,506840208506233 
732	 0,508556534409292 
733	 0,510094453139843 
734	 0,511463940491176 
735	 0,51265650685633 
736	 0,51320254628915 
737	 0,513635658361061 
738	 0,515570180385392 
739	 0,516944712695548 
740	 0,517106305621578 
741	 0,517234252588036 
742	 0,517620942804227 
743	 0,51847219079533 
744	 0,519160327178498 
745	 0,519616547817487 
746	 0,520160973899224 
747	 0,52060397102424 
748	 0,520866876792085 
749	 0,521087100575013 
750	 0,52142290974482 
751	 0,522096328683311 
752	 0,52242101455437 
753	 0,522443537023761 
754	 0,523096968022115 
755	 0,523899991044439 
756	 0,524459381748142 
757	 0,524622359820587 
758	 0,524743863164798 
759	 0,525581516173327 
760	 0,526578290704256 
761	 0,52737697855481 
762	 0,527237638484981 
763	 0,527280947224567 
764	 0,528501281529834 
765	 0,5289904769843 
766	 0,528878225419783 
767	 0,529482165192215 
768	 0,530112848268276 
769	 0,53052355589364 
770	 0,530912037535377 
771	 0,531102178361849 
772	 0,530893510156096 
773	 0,531159278121935 
774	 0,53178781479196 
775	 0,53179501129725 
776	 0,531734697442059 
777	 0,531841701207487 
778	 0,531688224286846 
779	 0,531393882321287 
780	 0,531193117323896 
781	 0,531043872567351 
782	 0,531018775806713 
783	 0,531422190749105 
784	 0,531597236232034 
785	 0,531216651577662 
786	 0,531448484061532 
787	 0,53203930102664 
788	 0,532250602493049 
789	 0,532365307786012 
790	 0,532469828855837 
791	 0,532628729021626 
792	 0,532778257913508 
793	 0,532882507328757 
794	 0,533117238364374 
795	 0,533501978232216 
796	 0,53405856508545 
797	 0,534302314631495 
798	 0,534192767326201 
799	 0,534366213422987 
800	 0,534911930566061 
801	 0,535809696472313 
802	 0,536022159579985 
803	 0,535740302959829 
804	 0,535943744781503 
805	 0,536391796025243 
806	 0,536911877749713 
807	 0,536945401214061 
808	 0,536826975089042 
809	 0,536951491598839 
810	 0,536953346694929 
811	 0,536969048407114 
812	 0,537672566106669 
813	 0,537799636312855 
814	 0,537049651492661 
815	 0,537107585429311 
816	 0,53765117165223 
817	 0,53810600685242 
818	 0,53823765265737 
819	 0,538154167781853 
820	 0,538463452919103 
821	 0,53848453820566 
822	 0,53807556853515 
823	 0,538508659784984 
824	 0,539125272395137 
825	 0,538940625653821 
826	 0,539381390427817 
827	 0,54034834131649 
828	 0,540422981319338 
829	 0,540577349110179 
830	 0,541188324219266 
831	 0,541215544788991 
832	 0,541060413916854 
833	 0,541404773217639 
834	 0,542061554464961 
835	 0,542746688885524 
836	 0,542655267105739 
837	 0,542802989059505 
838	 0,543617077378689 
839	 0,543948147795495 
840	 0,543823629891166 
841	 0,543477987374102 
842	 0,543340100759572 
843	 0,543377628701491 
844	 0,542910777015773 
845	 0,542993377179368 
846	 0,543963364870988 
847	 0,543867208728824 
848	 0,543261733959119 
849	 0,543242985753705 
850	 0,543549023076544 
851	 0,543783570006567 
852	 0,542817499170432 
853	 0,541858945021552 
854	 0,541622349100342 
855	 0,541997613354825 
856	 0,542431812420054 
857	 0,542203709822895 
858	 0,542002797479206 
859	 0,54185765213281 
860	 0,541200590597616 
861	 0,541012109229922 
862	 0,541698363463748 
863	 0,542275135028528 
864	 0,542554689894727 
865	 0,542460405834934 
866	 0,542565915253605 
867	 0,543021323455084 
868	 0,543866443465054 
869	 0,544280661451938 
870	 0,544071438413144 
871	 0,544790652877852 
872	 0,545695740780195 
873	 0,545761865166677 
874	 0,546406973394823 
875	 0,54743240526838 
876	 0,547343035623968 
877	 0,547399968009161 
878	 0,54808866167431 
879	 0,548977452957257 
880	 0,549430577642349 
881	 0,548878169823393 
882	 0,548771899756492 
883	 0,549241504207627 
884	 0,549817428368029 
885	 0,550161630633996 
886	 0,550186927352123 
887	 0,550339927303085 
888	 0,550583233572734 
889	 0,550838924763731 
890	 0,550929746955391 
891	 0,550817795470187 
892	 0,550489648075567 
893	 0,550211845107446 
894	 0,550166843820815 
895	 0,550678204894571 
896	 0,551024049430249 
897	 0,550618734154051 
898	 0,549536225215418 
899	 0,548775825258439 
900	 0,55008561447426 
901	 0,550219085410597 
902	 0,548791260731559 
903	 0,548106522908828 
904	 0,548033693187655 
905	 0,548399887262786 
906	 0,548487034734997 
907	 0,548451185941106 
908	 0,548663037086912 
909	 0,548065752088431 
910	 0,547021906051077 
911	 0,547545895427589 
912	 0,547613239740062 
913	 0,546545832907192 
914	 0,546314938731338 
915	 0,546850607234515 
916	 0,547817216886158 
917	 0,548247883927503 
918	 0,548249129985323 
919	 0,548883376139868 
920	 0,548182346704043 
921	 0,546203571884112 
922	 0,546363351231409 
923	 0,547556977046577 
924	 0,54860904249369 
925	 0,548810640874325 
926	 0,54862616705184 
927	 0,549186643044304 
928	 0,549276828768444 
929	 0,548771034766873 
930	 0,548355407993146 
931	 0,548678018039834 
932	 0,549837022585511 
933	 0,549674754000544 
934	 0,549136434312838 
935	 0,549705913955963 
936	 0,549755579887621 
937	 0,549106642875771 
938	 0,54814638012462 
939	 0,547876750497973 
940	 0,548492846479677 
941	 0,54870990404849 
942	 0,548210511721945 
943	 0,54693000029108 
944	 0,546398601652888 
945	 0,546558067063184 
946	 0,546825204049732 
947	 0,546047924661838 
948	 0,544373658381581 
949	 0,543816760690248 
950	 0,542890917037562 
951	 0,5409829406948 
952	 0,539889281155714 
953	 0,539219532838067 
954	 0,538316445379143 
955	 0,538635487442824 
956	 0,539319920555751 
957	 0,537591866308201 
958	 0,534992271980547 
959	 0,532691438758832 
960	 0,533058339291944 
961	 0,534324205949157 
962	 0,534846866652993 
963	 0,533662035672562 
964	 0,532032135081402 
965	 0,532069852123297 
966	 0,532129156950579 
967	 0,531821546592986 
968	 0,531329590103964 
969	 0,530227259196718 
970	 0,528848690817953 
971	 0,529845257008167 
972	 0,53084933577119 
973	 0,529808889029361 
974	 0,53049516053894 
975	 0,531649078832126 
976	 0,529935117647238 
977	 0,529259730796946 
978	 0,530178463919208 
979	 0,530516080570265 
980	 0,531506434897527 
981	 0,533349979246744 
982	 0,533734972103952 
983	 0,533543761407085 
984	 0,533834349013339 
985	 0,533571405501699 
986	 0,533561473656902 
987	 0,535742190402464 
988	 0,535705408368088 
989	 0,533679810010375 
990	 0,535378363091705 
991	 0,53706771510645 
992	 0,537066743193986 
993	 0,537880331944467 
994	 0,538912923718203 
995	 0,539414096193498 
996	 0,540520151273077 
997	 0,541089621040808 
998	 0,538463054606273 
999	 0,538737347114068 
1000	 0,542180352808402 
1001	 0,542983555646114 
1002	 0,543740429222659 
1003	 0,545320073864163 
1004	 0,545038686330557 
1005	 0,544754714678339 
1006	 0,546241107173417 
1007	 0,546249421426317 
1008	 0,545680828325608 
1009	 0,547091392731142 
1010	 0,547225272858374 
1011	 0,545914109873145 
1012	 0,545087155053366 
1013	 0,546998426615502 
1014	 0,551295393257631 
1015	 0,551048588642698 
1016	 0,548308711952098 
1017	 0,545849038089232 
1018	 0,548596421282015 
1019	 0,552707167260291 
1020	 0,551484947622046 
1021	 0,550441913001737 
1022	 0,551006355700838 
1023	 0,553649983995037 
1024	 0,554297998578297 
1025	 0,55238786803668 
1026	 0,552210313819721 
1027	 0,554537323990654 
1028	 0,559238488630828 
1029	 0,562684050834418 
1030	 0,563172181550033 
1031	 0,559724245669084 
1032	 0,556372336809357 
1033	 0,556300048675029 
1034	 0,563993451974597 
1035	 0,564425857343784 
1036	 0,557182056864462 
1037	 0,55735583227353 
1038	 0,558939515218991 
1039	 0,558661127622691 
1040	 0,5539622944835 
1041	 0,549349193985475 
1042	 0,54913925340754 
1043	 0,554337622502549 
1044	 0,559078822861351 
1045	 0,555700210156501 
1046	 0,558280458190425 
1047	 0,565974097487736 
1048	 0,56859465422582 
1049	 0,574023015744297 
1050	 0,580368869378726 
1051	 0,569626310214705 
1052	 0,563320414723663 
1053	 0,568921424272687 
1054	 0,562698093343867 
1055	 0,556232121575052 
1056	 0,560103856633669 
1057	 0,566129095253757 
1058	 0,568960154729733 
1059	 0,562926496855668 
1060	 0,562665230844759 
1061	 0,566743503377865 
1062	 0,564372456441238 
1063	 0,563841658412458 
1064	 0,56615542094087 
1065	 0,565713193491386 
1066	 0,567804472867366 
1067	 0,570630528243771 
1068	 0,551726874034924 
1069	 0,538627402043917 
1070	 0,552624797898772 
1071	 0,568722289297777 
1072	 0,577500337295898 
1073	 0,571926817913395 
1074	 0,564989598477948 
1075	 0,557139922912715 
