Wavelength	SCORFF200310.asd
325	 0,190401551669225 
326	 0,15377846396259 
327	 6,52103946875009E-02 
328	-3,12916733910355E-02 
329	 0,133707384707087 
330	 0,266315328045295 
331	 0,167075024815611 
332	-6,34098106800871E-03 
333	-0,111857704180687 
334	-2,60771133177136E-02 
335	 9,34182637404631E-02 
336	 0,118632000462602 
337	 4,54987726119783E-02 
338	-6,46851111714718E-02 
339	-9,71690545778004E-02 
340	-1,98266302725295E-02 
341	 7,59913292487387E-02 
342	 4,97356066524087E-02 
343	 4,97091241177981E-02 
344	 9,18519746762742E-02 
345	 0,044568722747093 
346	 1,80358916245092E-02 
347	 0,119273060314969 
348	 0,142788441207334 
349	 0,102880790895505 
350	 0,121639429698842 
351	 0,124299221482568 
352	 8,97757437965064E-02 
353	 6,87188414117073E-02 
354	 5,26519607205368E-02 
355	 2,99923956757265E-02 
356	 0,04073198500626 
357	 7,37697616073223E-02 
358	 8,38033612599276E-02 
359	 8,13753070645303E-02 
360	 6,89805894581196E-02 
361	 3,38259182272869E-02 
362	 9,81474382924214E-03 
363	 4,49519013128112E-02 
364	 6,52196085896256E-02 
365	 6,46511148745695E-02 
366	 0,081617394284425 
367	 8,46841834148678E-02 
368	 5,86503639174603E-02 
369	 3,69512827552546E-02 
370	 2,53808968936589E-02 
371	 2,84629474262362E-02 
372	 2,69286108312174E-02 
373	 1,89128315825197E-02 
374	 2,37654185173146E-02 
375	 3,01934272848581E-02 
376	 3,07222508335899E-02 
377	 3,81655590162098E-02 
378	 4,72126094845899E-02 
379	 4,45183106928191E-02 
380	 3,85663571967588E-02 
381	 3,43461190934801E-02 
382	 0,042241873585251 
383	 4,88678829918933E-02 
384	 4,25738045330034E-02 
385	 2,98222524280294E-02 
386	 2,06554170391471E-02 
387	 3,77902987829979E-02 
388	 4,76238616585563E-02 
389	 0,037618817360005 
390	 2,01261048962299E-02 
391	 1,10518578450925E-02 
392	 2,87563951781993E-02 
393	 2,01195307199689E-02 
394	-5,75104500485668E-03 
395	 1,60500933496901E-02 
396	 0,035095590234538 
397	 2,79517729491126E-02 
398	 1,19189429540933E-02 
399	 1,49866018560222E-03 
400	 1,33807142029485E-02 
401	 2,16558472919366E-02 
402	 0,019756292129925 
403	 1,08510175345885E-02 
404	 1,09690857065027E-02 
405	 2,77987332635018E-02 
406	 2,74747994141303E-02 
407	 1,81560597230874E-02 
408	 2,60232769469963E-02 
409	 3,15142891531165E-02 
410	 0,030104187763001 
411	 2,88643288261371E-02 
412	 2,61586404433972E-02 
413	 2,06834859999727E-02 
414	 2,36441754551449E-02 
415	 3,11576757999943E-02 
416	 2,92461295026527E-02 
417	 2,58526035361917E-02 
418	 2,34713633498921E-02 
419	 1,54176888048149E-02 
420	 9,28004517623128E-03 
421	 1,51948992075058E-02 
422	 0,019458668796046 
423	 2,02984725346901E-02 
424	 2,41932550931922E-02 
425	 2,54084841473435E-02 
426	 2,12231292027955E-02 
427	 1,88712017276333E-02 
428	 1,90262779926003E-02 
429	 0,021117148355994 
430	 2,10787770087875E-02 
431	 1,87919780302062E-02 
432	 1,99555607957786E-02 
433	 2,11044262848516E-02 
434	 0,01922504135406 
435	 0,018806918202089 
436	 0,020265839632409 
437	 2,33517301350768E-02 
438	 2,26204827515111E-02 
439	 1,72311277992167E-02 
440	 1,69938977434054E-02 
441	 1,96270913371245E-02 
442	 2,11086005755705E-02 
443	 2,07750385475504E-02 
444	 1,92820225518015E-02 
445	 1,95251900557704E-02 
446	 2,11876599560126E-02 
447	 2,33857411628221E-02 
448	 1,99764605824083E-02 
449	 1,54594904986372E-02 
450	 1,98733574847857E-02 
451	 2,17182949447009E-02 
452	 1,89365680869067E-02 
453	 0,019423244292696 
454	 2,08474176482648E-02 
455	 2,07320018455948E-02 
456	 1,92644140661466E-02 
457	 1,75678189619755E-02 
458	 1,83348324721234E-02 
459	 1,99988263948694E-02 
460	 2,17914754417383E-02 
461	 2,36426750618312E-02 
462	 2,44545254878635E-02 
463	 2,28998407301562E-02 
464	 2,09750011654677E-02 
465	 1,96818291676459E-02 
466	 2,02039613104181E-02 
467	 2,10886792999536E-02 
468	 2,13297656365427E-02 
469	 0,0217774093625 
470	 2,16364676554104E-02 
471	 0,018924733647574 
472	 1,74888624777468E-02 
473	 1,86156099652997E-02 
474	 2,16644198253178E-02 
475	 2,39595538567894E-02 
476	 2,30196752720395E-02 
477	 2,08990894368386E-02 
478	 1,90774069192325E-02 
479	 2,05501023072478E-02 
480	 2,02610034809165E-02 
481	 1,66363651531642E-02 
482	 1,65002295631935E-02 
483	 1,82016815999644E-02 
484	 1,81979348476697E-02 
485	 1,94984856919114E-02 
486	 2,18858127767834E-02 
487	 0,022087926530956 
488	 2,11803005056063E-02 
489	 2,01520324732765E-02 
490	 1,98646931933672E-02 
491	 2,00716886188293E-02 
492	 0,019774359460173 
493	 1,96733511056334E-02 
494	 1,98576847387235E-02 
495	 0,019513577391615 
496	 0,019260163057047 
497	 1,98307983192787E-02 
498	 1,96367704627943E-02 
499	 1,89213686275226E-02 
500	 1,95377402093575E-02 
501	 2,03860367590224E-02 
502	 2,06872658225169E-02 
503	 1,95181940671982E-02 
504	 1,81441756628959E-02 
505	 1,88317863591726E-02 
506	 2,06547965772698E-02 
507	 2,24577787925344E-02 
508	 2,07476295612824E-02 
509	 1,85074760676066E-02 
510	 1,85429576528832E-02 
511	 1,94595853294056E-02 
512	 2,07002744683685E-02 
513	 2,16570808460924E-02 
514	 2,21426145775227E-02 
515	 2,20236478090875E-02 
516	 0,021264613905318 
517	 2,03951972655177E-02 
518	 2,01006562320551E-02 
519	 2,00889212878745E-02 
520	 2,03971792617343E-02 
521	 2,16160692969608E-02 
522	 2,20359351409712E-02 
523	 2,06449945849754E-02 
524	 2,05064095504543E-02 
525	 2,14603506595452E-02 
526	 2,21474363064776E-02 
527	 2,21032534154832E-02 
528	 2,13332723272138E-02 
529	 0,021120867635736 
530	 2,14172177996998E-02 
531	 2,20249022280785E-02 
532	 2,13855463510836E-02 
533	 2,00602281711084E-02 
534	 2,09382450397204E-02 
535	 2,20661339086754E-02 
536	 2,23000062229761E-02 
537	 2,24298210252268E-02 
538	 2,23996877531169E-02 
539	 2,19160195301299E-02 
540	 2,14338455487259E-02 
541	 2,12886085520575E-02 
542	 2,21867344517472E-02 
543	 0,023057387116563 
544	 2,28633226657566E-02 
545	 2,25892304684913E-02 
546	 2,24592220105768E-02 
547	 2,24709871148587E-02 
548	 2,25959619056143E-02 
549	 2,27331722400976E-02 
550	 2,22553501242482E-02 
551	 2,18557875288944E-02 
552	 2,27131685142654E-02 
553	 2,33955078564672E-02 
554	 0,023475454853073 
555	 2,30540354355786E-02 
556	 2,28101569082094E-02 
557	 2,32409528908936E-02 
558	 2,31725730062033E-02 
559	 2,27544507734771E-02 
560	 2,29347374998849E-02 
561	 2,29323178814715E-02 
562	 2,25540200467457E-02 
563	 2,26068744184171E-02 
564	 0,022728481605176 
565	 2,23455241423977E-02 
566	 0,022581243097155 
567	 2,33790593186601E-02 
568	 2,35201533466425E-02 
569	 2,35416851071363E-02 
570	 2,37753203510105E-02 
571	 2,35865104075945E-02 
572	 2,32168976809688E-02 
573	 0,023330192167214 
574	 2,37666739196944E-02 
575	 2,43828861005024E-02 
576	 2,47342090351369E-02 
577	 0,024811360144061 
578	 2,46680228457543E-02 
579	 2,50761342554701E-02 
580	 2,59073121286724E-02 
581	 2,62706584431123E-02 
582	 2,60645056940342E-02 
583	 2,53673817386865E-02 
584	 2,52745643922001E-02 
585	 0,025822028781601 
586	 2,68715094433463E-02 
587	 2,70147912925633E-02 
588	 2,62491243935091E-02 
589	 2,67889873852796E-02 
590	 2,75959654840116E-02 
591	 0,027632124429638 
592	 2,76924876753417E-02 
593	 2,77359603407199E-02 
594	 0,027112548994096 
595	 2,71159354447883E-02 
596	 2,81056558713831E-02 
597	 2,79732593617134E-02 
598	 2,75362657790309E-02 
599	 2,83800445020148E-02 
600	 2,84324988527276E-02 
601	 2,75351466270677E-02 
602	 2,73364488636041E-02 
603	 2,75577403485348E-02 
604	 2,79199799151425E-02 
605	 2,81684509008277E-02 
606	 2,81316272848208E-02 
607	 2,75631526648802E-02 
608	 2,68404302319771E-02 
609	 2,62558514534038E-02 
610	 2,63561065355232E-02 
611	 2,67218626825671E-02 
612	 2,67822330243175E-02 
613	 2,64545945141854E-02 
614	 2,60045454698989E-02 
615	 2,64247880732812E-02 
616	 2,68665845376486E-02 
617	 2,67441923609009E-02 
618	 2,59451895577202E-02 
619	 2,53211243752897E-02 
620	 2,66186817066933E-02 
621	 2,75380018022737E-02 
622	 0,0274350295293 
623	 2,73203311967497E-02 
624	 2,72184554535601E-02 
625	 0,027095531786626 
626	 2,67709259038558E-02 
627	 2,64301559694154E-02 
628	 2,67448149463812E-02 
629	 2,68763777805146E-02 
630	 2,64969702084142E-02 
631	 2,66084790930115E-02 
632	 2,70504521566074E-02 
633	 2,73891148837098E-02 
634	 2,74188389763422E-02 
635	 0,027312501571583 
636	 2,81572096635537E-02 
637	 2,88508412281159E-02 
638	 2,84888558547984E-02 
639	 2,82329601510665E-02 
640	 2,83292106514847E-02 
641	 2,88626848274189E-02 
642	 2,92047897869418E-02 
643	 2,91481782666392E-02 
644	 2,92768015552503E-02 
645	 2,94970283022999E-02 
646	 2,96190263225318E-02 
647	 2,95451611150221E-02 
648	 0,02938491416068 
649	 2,96284186479908E-02 
650	 2,98250743672544E-02 
651	 2,96525016423749E-02 
652	 2,90850176734987E-02 
653	 2,85222212165492E-02 
654	 2,87562109220781E-02 
655	 0,029183976332715 
656	 2,93633023156542E-02 
657	 0,028296341354108 
658	 2,70812223030342E-02 
659	 0,026893578374247 
660	 2,68234670743114E-02 
661	 2,67042603495426E-02 
662	 2,66929292655879E-02 
663	 2,64010719870538E-02 
664	 0,025720561677921 
665	 2,53735076735063E-02 
666	 2,53271327858077E-02 
667	 2,53912292095063E-02 
668	 2,53522526313613E-02 
669	 2,52172486408066E-02 
670	 2,53719922377241E-02 
671	 2,54303176123035E-02 
672	 2,51154250118192E-02 
673	 2,50319852955003E-02 
674	 2,51856188114901E-02 
675	 2,53706150024359E-02 
676	 2,53431933774324E-02 
677	 2,50759646636138E-02 
678	 0,025003753754893 
679	 2,52264650159565E-02 
680	 2,58019629803054E-02 
681	 2,59594385751093E-02 
682	 2,57445163525269E-02 
683	 2,59943173868875E-02 
684	 2,60655117711258E-02 
685	 0,025743232441417 
686	 2,64908544859154E-02 
687	 2,76990181091458E-02 
688	 2,79439838313199E-02 
689	 2,83718917595531E-02 
690	 2,92209814345635E-02 
691	 2,99524796935618E-02 
692	 3,07408935083516E-02 
693	 3,17773939376295E-02 
694	 3,32914795031077E-02 
695	 3,50777132082925E-02 
696	 3,64590953295937E-02 
697	 3,81636955256015E-02 
698	 0,040465167192803 
699	 0,042963609281026 
700	 4,57348180414716E-02 
701	 4,89283620133204E-02 
702	 5,17367752993128E-02 
703	 5,41901523272846E-02 
704	 5,71617375727674E-02 
705	 6,02213903253725E-02 
706	 0,063062995763037 
707	 0,065576640174376 
708	 6,79479385790024E-02 
709	 7,05372297581874E-02 
710	 7,31453569038941E-02 
711	 7,56385502635521E-02 
712	 7,77044617594876E-02 
713	 7,96448224484437E-02 
714	 8,17342347325734E-02 
715	 8,36050989963746E-02 
716	 8,51981890429791E-02 
717	 0,086487209289945 
718	 8,79713913567627E-02 
719	 8,97675946619988E-02 
720	 9,11077193998339E-02 
721	 9,22375888533218E-02 
722	 9,35676426733252E-02 
723	 9,45413631374875E-02 
724	 9,51930101890952E-02 
725	 9,60939386639154E-02 
726	 9,68722586467051E-02 
727	 9,73554164342384E-02 
728	 9,81121654357881E-02 
729	 9,89652773224864E-02 
730	 9,94513264046141E-02 
731	 0,100034340843161 
732	 0,100750142456703 
733	 0,101173709185658 
734	 0,101385124384502 
735	 0,10148569105896 
736	 0,101616998012431 
737	 0,101933817301455 
738	 0,102810985402691 
739	 0,103252945820431 
740	 0,103052484990716 
741	 0,103441905279265 
742	 0,104120464454856 
743	 0,10461681897018 
744	 0,104668342033987 
745	 0,104514475458449 
746	 0,105177317408986 
747	 0,105494664369661 
748	 0,104986730360934 
749	 0,10495969783123 
750	 0,105376264080674 
751	 0,105933606358524 
752	 0,106364610248189 
753	 0,106574253904171 
754	 0,106578962756718 
755	 0,106797815611057 
756	 0,107439958818782 
757	 0,107366230586027 
758	 0,106981231656565 
759	 0,107478267215085 
760	 0,107892697843455 
761	 0,107975441193125 
762	 0,108097715516815 
763	 0,108286922412312 
764	 0,10855234639529 
765	 0,108893485006559 
766	 0,109182889626327 
767	 0,109079662234589 
768	 0,109083866622392 
769	 0,109369429897732 
770	 0,109638994215425 
771	 0,1098440724478 
772	 0,109960225955332 
773	 0,110099184326162 
774	 0,110311375138181 
775	 0,110696961298698 
776	 0,110904158772785 
777	 0,110762116716764 
778	 0,110449695470903 
779	 0,110379313113209 
780	 0,111103672270577 
781	 0,111594473652323 
782	 0,111595929936087 
783	 0,111274077043916 
784	 0,111180687339155 
785	 0,111631411691069 
786	 0,111918101581072 
787	 0,112037308987279 
788	 0,112168454083051 
789	 0,112389697311711 
790	 0,112704161994328 
791	 0,113047301539255 
792	 0,11309339983629 
793	 0,112665846251932 
794	 0,112720946537707 
795	 0,113173272671568 
796	 0,113516590796549 
797	 0,113546082759055 
798	 0,113280367497009 
799	 0,113286995132326 
800	 0,113390802306522 
801	 0,113414569861111 
802	 0,113656475613081 
803	 0,114011026178018 
804	 0,114079409507869 
805	 0,114187771499392 
806	 0,114412543137205 
807	 0,11447681595264 
808	 0,114590368223093 
809	 0,114969259015946 
810	 0,114963607818111 
811	 0,114765184941387 
812	 0,115310625230837 
813	 0,115738484024604 
814	 0,115754233406868 
815	 0,115963113209721 
816	 0,116242825020651 
817	 0,116390542316016 
818	 0,116463595811581 
819	 0,116558329160098 
820	 0,116968680440321 
821	 0,117125411699492 
822	 0,116875102946893 
823	 0,117157286681702 
824	 0,117523678209802 
825	 0,117295197950231 
826	 0,117482120062522 
827	 0,117987694653857 
828	 0,117692965075285 
829	 0,117546668271816 
830	 0,117958006230927 
831	 0,118118922397379 
832	 0,118114182274098 
833	 0,118177561912039 
834	 0,11859515557492 
835	 0,119201533283097 
836	 0,119203625937909 
837	 0,119257983503494 
838	 0,119630753572937 
839	 0,119539571676171 
840	 0,119200676993025 
841	 0,119033674789306 
842	 0,119223061156311 
843	 0,119598270859388 
844	 0,119363196306447 
845	 0,119364477792842 
846	 0,119914787513705 
847	 0,119704877771331 
848	 0,119237008253011 
849	 0,11941036110174 
850	 0,119867482562344 
851	 0,120273932394726 
852	 0,119814043661897 
853	 0,119451660229346 
854	 0,119691215700936 
855	 0,120037287585083 
856	 0,120302485284637 
857	 0,120314885108379 
858	 0,120293731509509 
859	 0,120217159058661 
860	 0,119799294284157 
861	 0,11949148807233 
862	 0,119513812101908 
863	 0,119483476251553 
864	 0,119728486775144 
865	 0,120690521973096 
866	 0,120945949015483 
867	 0,120583975398054 
868	 0,12103929332466 
869	 0,121268957825217 
870	 0,120905114106445 
871	 0,12075564501511 
872	 0,121167729520388 
873	 0,122395569027983 
874	 0,122730928912089 
875	 0,122255469507463 
876	 0,122378506858486 
877	 0,122591558443612 
878	 0,12281284471692 
879	 0,123679876663755 
880	 0,124435952553146 
881	 0,124245108235324 
882	 0,12364096071809 
883	 0,123078565894976 
884	 0,123375582740302 
885	 0,123889052916723 
886	 0,124327018491056 
887	 0,124533116565102 
888	 0,124705406283048 
889	 0,124995743365957 
890	 0,124688457357682 
891	 0,124098073453308 
892	 0,124113522684511 
893	 0,124599516774098 
894	 0,125434366244686 
895	 0,126436185645961 
896	 0,126488202367526 
897	 0,124915314473438 
898	 0,123780574139669 
899	 0,123530480538383 
900	 0,124291019472934 
901	 0,124847950471184 
902	 0,124808463241299 
903	 0,124297134685797 
904	 0,124135999904696 
905	 0,124747773059798 
906	 0,125136948163686 
907	 0,125203817570958 
908	 0,125004828945645 
909	 0,124648419965555 
910	 0,124576687923956 
911	 0,126160872203577 
912	 0,12679492184654 
913	 0,125624979435447 
914	 0,125730785951643 
915	 0,126233204553415 
916	 0,125883840067652 
917	 0,125325256667391 
918	 0,124969521037073 
919	 0,125553888879261 
920	 0,126067954798898 
921	 0,12611434329494 
922	 0,125731879540321 
923	 0,125488910170417 
924	 0,12586205356031 
925	 0,126654117916651 
926	 0,127364241404943 
927	 0,127215192204158 
928	 0,126670494027173 
929	 0,126141975907719 
930	 0,126488882819228 
931	 0,12714350807749 
932	 0,127674015587977 
933	 0,127771394563494 
934	 0,127569500845668 
935	 0,127321130742406 
936	 0,127750029399111 
937	 0,128403536759283 
938	 0,12746862050454 
939	 0,126844429634967 
940	 0,127258541746941 
941	 0,128411878380845 
942	 0,128875045263998 
943	 0,127584858509223 
944	 0,127061478027062 
945	 0,127076105312141 
946	 0,12633194325322 
947	 0,126589094863403 
948	 0,127604408687881 
949	 0,12669693653142 
950	 0,125617591609674 
951	 0,125440129961331 
952	 0,125981364882768 
953	 0,126426216782838 
954	 0,125877043122334 
955	 0,125921020586649 
956	 0,126416109683289 
957	 0,126195753625251 
958	 0,125368394110513 
959	 0,124300951561222 
960	 0,124324863649369 
961	 0,12531329715189 
962	 0,126852447217483 
963	 0,126976481815672 
964	 0,12608329978738 
965	 0,125255682128793 
966	 0,125253894768948 
967	 0,125918252564382 
968	 0,126141909957036 
969	 0,125274787917379 
970	 0,123698219212787 
971	 0,12533860062857 
972	 0,126151521458037 
973	 0,12286060337132 
974	 0,123680112533386 
975	 0,126392298239706 
976	 0,124588073915415 
977	 0,123263546365628 
978	 0,123776775710108 
979	 0,126155630843143 
980	 0,126995493560847 
981	 0,125313900853503 
982	 0,126557119676043 
983	 0,127846546280051 
984	 0,126218682590623 
985	 0,127299847397459 
986	 0,13009799646709 
987	 0,130799258991553 
988	 0,129527567350457 
989	 0,12744873640237 
990	 0,128924625314517 
991	 0,129626186727569 
992	 0,127999252894846 
993	 0,129341333025134 
994	 0,131783375774176 
995	 0,132748462952938 
996	 0,130100555676719 
997	 0,126531103837877 
998	 0,127979469453992 
999	 0,129608619843781 
1000	 0,130166983202831 
1001	 0,130301346237228 
1002	 0,130867039986327 
1003	 0,131972007787307 
1004	 0,131397756387 
1005	 0,130599891114819 
1006	 0,131185785521214 
1007	 0,133094047253543 
1008	 0,13445804056467 
1009	 0,132106064848519 
1010	 0,130847168753743 
1011	 0,13104917274283 
1012	 0,128720971109419 
1013	 0,129989137843872 
1014	 0,135575124681082 
1015	 0,135004659324522 
1016	 0,132210371215925 
1017	 0,131118873440922 
1018	 0,130592277205085 
1019	 0,131327539184117 
1020	 0,13433223525215 
1021	 0,13593783830881 
1022	 0,135966568867986 
1023	 0,136950069409201 
1024	 0,13658102132425 
1025	 0,135102458850812 
1026	 0,136700229441094 
1027	 0,139659644176791 
1028	 0,142135022397639 
1029	 0,140452836394761 
1030	 0,138610775589326 
1031	 0,141158789568802 
1032	 0,138282455400772 
1033	 0,134206594683156 
1034	 0,141092540223982 
1035	 0,144411473885587 
1036	 0,141378231776487 
1037	 0,137292324135932 
1038	 0,136944859888031 
1039	 0,141132323730283 
1040	 0,141644980468467 
1041	 0,135563856271955 
1042	 0,123777158714275 
1043	 0,128565529910425 
1044	 0,139153532577403 
1045	 0,136811679210715 
1046	 0,133518497810839 
1047	 0,135642741179678 
1048	 0,152489487895326 
1049	 0,157349416287044 
1050	 0,147713359337498 
1051	 0,147178778804949 
1052	 0,150408754693903 
1053	 0,152659389591495 
1054	 0,141295882351975 
1055	 0,136591964040936 
1056	 0,152976683217667 
1057	 0,157390963335772 
1058	 0,148993673102411 
1059	 0,134472999367907 
1060	 0,132237801734426 
1061	 0,140470416480316 
1062	 0,145457545229007 
1063	 0,139031980481766 
1064	 0,127456226173351 
1065	 0,145212453434697 
1066	 0,155559203117042 
1067	 0,144469669120615 
1068	 0,131072556311583 
1069	 0,132394566659851 
1070	 0,155579893374029 
1071	 0,158244866324039 
1072	 0,152693211554552 
1073	 0,157248896790407 
1074	 0,1513100390538 
1075	 0,141473724171439 
