Wavelength	SCORFF200764.asd
325	 0,103402865005493 
326	 0,146884848022771 
327	 9,41498141274917E-02 
328	-3,73761654392924E-02 
329	 0,136734350096536 
330	 0,283945114768712 
331	 0,17997411637579 
332	 7,83982201409521E-02 
333	 0,042988178514123 
334	 0,045934211015657 
335	 0,109054997400543 
336	 0,169485644895481 
337	 0,105404963772556 
338	 1,16961333526669E-02 
339	 2,71260880615033E-02 
340	 9,45749989337655E-02 
341	 0,134622347403712 
342	 1,76690275308459E-02 
343	 2,37049465032468E-02 
344	 0,165639947949146 
345	 0,141859329578488 
346	 8,79908630604522E-02 
347	 0,137810360709553 
348	 0,139120138392379 
349	 0,102695942062306 
350	 0,117418009902096 
351	 0,102077400428749 
352	 4,56375904485368E-02 
353	 4,61847343075685E-02 
354	 7,03515972684074E-02 
355	 7,70451320565385E-02 
356	 7,31515979075336E-02 
357	 6,50498973463354E-02 
358	 6,44512319075625E-02 
359	 7,49762715922403E-02 
360	 9,10222795478496E-02 
361	 4,57546028626868E-02 
362	 0,005566661652749 
363	 7,57135581711181E-02 
364	 8,27545882805968E-02 
365	 2,72549726071227E-02 
366	 4,49672351163773E-02 
367	 7,97270806256974E-02 
368	 9,13504933080939E-02 
369	 5,08373753088679E-02 
370	-1,75327544200058E-03 
371	 2,13152133108597E-02 
372	 3,04991348764962E-02 
373	 1,36623639534975E-02 
374	 3,13927613110134E-02 
375	 0,047546883793134 
376	 3,88233552323833E-02 
377	 5,29905233775729E-02 
378	 7,31548414705377E-02 
379	 4,92152680330288E-02 
380	 3,42600931471844E-02 
381	 4,34731770610689E-02 
382	 5,59609567593852E-02 
383	 6,43823717532286E-02 
384	 6,42088680927253E-02 
385	 0,04983577128861 
386	 0,032683181322993 
387	 4,22166611732053E-02 
388	 5,48214036880487E-02 
389	 5,68345193521028E-02 
390	 3,16451309533726E-02 
391	 1,15020860468326E-02 
392	 3,72901366526775E-02 
393	 3,71106840646301E-02 
394	 0,013281341098661 
395	 2,16516201017998E-02 
396	 0,031349770034429 
397	 2,83081907513405E-02 
398	 2,59039373092713E-02 
399	 2,49848598276775E-02 
400	 2,45026084973214E-02 
401	 0,02221607884543 
402	 2,05587111025433E-02 
403	 2,98479004250865E-02 
404	 4,01984961018846E-02 
405	 4,39066448550784E-02 
406	 3,83890717697571E-02 
407	 3,11522229402455E-02 
408	 3,81383119891835E-02 
409	 4,30614613149375E-02 
410	 4,15709717543847E-02 
411	 3,89632797551079E-02 
412	 3,26529931239142E-02 
413	 2,10298678186956E-02 
414	 2,53559903034558E-02 
415	 3,88037272853273E-02 
416	 3,54110018305358E-02 
417	 3,18331871226297E-02 
418	 3,32434403431863E-02 
419	 2,71998712818241E-02 
420	 2,13163368067423E-02 
421	 2,63974019761251E-02 
422	 2,94939590257276E-02 
423	 2,92234356430561E-02 
424	 3,20788619404611E-02 
425	 3,33630217642101E-02 
426	 3,05453928266704E-02 
427	 2,68618048030288E-02 
428	 2,46069215204737E-02 
429	 2,68535420565632E-02 
430	 2,84603014872253E-02 
431	 2,82703625249922E-02 
432	 0,029202571654184 
433	 2,89462129678973E-02 
434	 2,57821509982829E-02 
435	 2,63760855533388E-02 
436	 2,99428309212899E-02 
437	 3,15807939121306E-02 
438	 3,30027469387097E-02 
439	 3,42107472409582E-02 
440	 3,18934226888631E-02 
441	 2,94800409774317E-02 
442	 3,14972254865841E-02 
443	 3,20690368083733E-02 
444	 3,09457066285575E-02 
445	 0,032572342694129 
446	 3,26949691594456E-02 
447	 2,93336932132519E-02 
448	 2,93239291274029E-02 
449	 3,14524925626667E-02 
450	 3,16559949079047E-02 
451	 3,23317298106142E-02 
452	 3,35924983755118E-02 
453	 3,31664731000637E-02 
454	 3,19136062648077E-02 
455	 3,06782681207134E-02 
456	 2,79666514269848E-02 
457	 2,55976987240165E-02 
458	 2,90207008338415E-02 
459	 0,031903218874557 
460	 3,18189400134832E-02 
461	 3,22018794835502E-02 
462	 3,31870098301387E-02 
463	 3,45807023687153E-02 
464	 0,032588214700672 
465	 0,027853006790659 
466	 0,025100911261113 
467	 0,026954996329779 
468	 3,37960818789226E-02 
469	 0,032912212289313 
470	 2,80328680914269E-02 
471	 3,02389548545729E-02 
472	 3,26593051383764E-02 
473	 3,32345279614833E-02 
474	 3,30033299824203E-02 
475	 3,20187181618272E-02 
476	 3,03879049888237E-02 
477	 2,96917792403397E-02 
478	 2,99806098204288E-02 
479	 3,06938746670327E-02 
480	 2,97771710049165E-02 
481	 2,69221795740544E-02 
482	 2,73567048362828E-02 
483	 2,92496815368811E-02 
484	 2,91330636411352E-02 
485	 2,85247543158741E-02 
486	 2,81225729710576E-02 
487	 2,88865608322476E-02 
488	 0,030729580765274 
489	 3,31680872347285E-02 
490	 3,23975466185391E-02 
491	 2,96107173039167E-02 
492	 2,87369546067802E-02 
493	 2,86731814432226E-02 
494	 0,029022890978783 
495	 2,91808902558556E-02 
496	 2,89875320009749E-02 
497	 2,83652005108945E-02 
498	 2,93108615640035E-02 
499	 0,030925583841136 
500	 2,89063580934747E-02 
501	 2,75260486979806E-02 
502	 2,89550112624909E-02 
503	 2,96586780739214E-02 
504	 2,96672730185471E-02 
505	 2,98074254759717E-02 
506	 3,06199375102174E-02 
507	 3,17353219248216E-02 
508	 3,06877557300466E-02 
509	 2,96182586213518E-02 
510	 3,04637270945127E-02 
511	 3,12163851630129E-02 
512	 3,15165679551364E-02 
513	 3,16059993131055E-02 
514	 3,09754791539808E-02 
515	 2,97103442934887E-02 
516	 2,96155743366125E-02 
517	 3,01792702585798E-02 
518	 3,04227587381918E-02 
519	 3,08397145837218E-02 
520	 3,13821906336561E-02 
521	 3,15911916537403E-02 
522	 3,15691546557354E-02 
523	 3,14196127246336E-02 
524	 3,11467539439993E-02 
525	 3,13064264724804E-02 
526	 3,35098544695007E-02 
527	 3,36022077216596E-02 
528	 3,10249561535614E-02 
529	 0,031373671381175 
530	 3,25881054510011E-02 
531	 3,18706169896775E-02 
532	 3,13400430177347E-02 
533	 3,13829417132514E-02 
534	 3,17559491530629E-02 
535	 3,19265244346334E-02 
536	 3,16425912876029E-02 
537	 3,17411301511953E-02 
538	 3,20099886570057E-02 
539	 3,18450573521894E-02 
540	 0,031686069288359 
541	 3,17428879856006E-02 
542	 3,24119714149836E-02 
543	 3,26764187687292E-02 
544	 3,16320511469467E-02 
545	 3,16652046004197E-02 
546	 3,26210962072315E-02 
547	 3,26481217503049E-02 
548	 3,25651323387958E-02 
549	 3,27257319433231E-02 
550	 3,28121652280996E-02 
551	 3,29681265368903E-02 
552	 3,34639091219586E-02 
553	 3,39481828073743E-02 
554	 3,41706304338001E-02 
555	 3,35859160088341E-02 
556	 3,31899598821535E-02 
557	 3,37273035906527E-02 
558	 3,35199924571405E-02 
559	 3,28735524052793E-02 
560	 3,33503929340971E-02 
561	 3,36940269819336E-02 
562	 3,34510552470917E-02 
563	 3,31205255925304E-02 
564	 3,28825494646989E-02 
565	 3,29058113489213E-02 
566	 3,30269207389291E-02 
567	 3,32591139168515E-02 
568	 3,38717245183731E-02 
569	 3,42887624345505E-02 
570	 3,41510201882115E-02 
571	 3,42191230930297E-02 
572	 0,034417795096198 
573	 3,42516767791682E-02 
574	 3,44166720231564E-02 
575	 3,50993920622301E-02 
576	 3,60184985670148E-02 
577	 3,63239725852309E-02 
578	 3,51670309536071E-02 
579	 3,52434107919099E-02 
580	 3,65050655007364E-02 
581	 3,67915761124543E-02 
582	 3,65053402084786E-02 
583	 3,59536081461325E-02 
584	 0,035804944764633 
585	 3,61394655795095E-02 
586	 3,69981537378803E-02 
587	 3,68323017381274E-02 
588	 3,56887215803189E-02 
589	 3,60681909296389E-02 
590	 3,70273048688865E-02 
591	 3,75661214957006E-02 
592	 3,78478805171008E-02 
593	 0,037846449539 
594	 3,74073357085877E-02 
595	 3,72969502158338E-02 
596	 3,77315669383325E-02 
597	 3,73714224742928E-02 
598	 3,68309733630082E-02 
599	 3,72438391125805E-02 
600	 3,72885462760888E-02 
601	 0,036891175333298 
602	 3,72635863387272E-02 
603	 3,76342511172986E-02 
604	 3,74530352162716E-02 
605	 0,038034929778163 
606	 3,87960091732907E-02 
607	 3,77619606246211E-02 
608	 3,67815706202879E-02 
609	 3,65314299751756E-02 
610	 3,64559930654361E-02 
611	 3,63351569086274E-02 
612	 3,59534659037745E-02 
613	 3,59972976292348E-02 
614	 3,63328253780159E-02 
615	 3,58667564789562E-02 
616	 3,56922657950998E-02 
617	 3,63934180334822E-02 
618	 3,64984146078036E-02 
619	 3,62824363560196E-02 
620	 3,67515899689812E-02 
621	 3,69829935563828E-02 
622	 0,036792414487532 
623	 3,68012827101246E-02 
624	 3,68841538153074E-02 
625	 3,68723919330074E-02 
626	 3,66940792714913E-02 
627	 3,64353549810936E-02 
628	 3,63536449565724E-02 
629	 3,64613171806777E-02 
630	 0,036717965437604 
631	 3,67506349296012E-02 
632	 3,66883654694942E-02 
633	 3,68010264785753E-02 
634	 3,70934598664736E-02 
635	 0,037648660325472 
636	 3,89721931316586E-02 
637	 3,94275838123852E-02 
638	 3,78284787877048E-02 
639	 3,75534107072866E-02 
640	 0,038547214691728 
641	 3,90926061997517E-02 
642	 3,91139479917349E-02 
643	 3,86529160323275E-02 
644	 3,86249545522231E-02 
645	 3,89854713228536E-02 
646	 3,95566323017996E-02 
647	 3,90907981766273E-02 
648	 3,79422964980845E-02 
649	 3,84673412691618E-02 
650	 0,03933192420481 
651	 3,95745417712729E-02 
652	 3,91723111376851E-02 
653	 3,85457343845324E-02 
654	 3,85838041165433E-02 
655	 3,85388642929075E-02 
656	 3,81835866459043E-02 
657	 3,76968441787799E-02 
658	 0,037129212290101 
659	 3,65403922215554E-02 
660	 3,63009723987372E-02 
661	 3,63654447330318E-02 
662	 0,036440306305647 
663	 0,036112142105851 
664	 3,53157825524371E-02 
665	 3,52710673490923E-02 
666	 3,56279259647369E-02 
667	 3,56182417897372E-02 
668	 3,56006498789613E-02 
669	 3,55423074061646E-02 
670	 3,49662733418624E-02 
671	 3,44903920932335E-02 
672	 3,45946297077484E-02 
673	 3,47206562679818E-02 
674	 3,47903142583222E-02 
675	 3,48764615370106E-02 
676	 0,034942298395589 
677	 3,49733317207759E-02 
678	 3,49425169057436E-02 
679	 0,03500033737454 
680	 3,53187673381805E-02 
681	 3,55599703352629E-02 
682	 3,56541684636693E-02 
683	 3,56693745208158E-02 
684	 3,56686181782369E-02 
685	 3,57454411689337E-02 
686	 3,62595842454725E-02 
687	 3,69433079317439E-02 
688	 3,72357573947921E-02 
689	 3,76639191274775E-02 
690	 3,83579156229182E-02 
691	 3,91136301416765E-02 
692	 4,00015469467771E-02 
693	 4,11021281923876E-02 
694	 4,25771493802663E-02 
695	 4,42892974510062E-02 
696	 4,58422013626072E-02 
697	 4,73925629593606E-02 
698	 4,90759884312569E-02 
699	 5,13124912644735E-02 
700	 5,36913299875291E-02 
701	 5,56465130971238E-02 
702	 0,057909295824375 
703	 6,04588551647813E-02 
704	 6,26816216783765E-02 
705	 6,46682251855216E-02 
706	 6,64904189268751E-02 
707	 6,82608884196514E-02 
708	 7,00693557213829E-02 
709	 7,20492214721488E-02 
710	 7,37817330434815E-02 
711	 7,51833670999696E-02 
712	 7,65297474850217E-02 
713	 7,79029526413664E-02 
714	 7,93446294035867E-02 
715	 8,04764923312866E-02 
716	 0,081354490598252 
717	 8,23383848827021E-02 
718	 8,31650516520954E-02 
719	 0,083804580105028 
720	 8,47010339556369E-02 
721	 8,56833382070942E-02 
722	 8,64861090301942E-02 
723	 8,70074194565773E-02 
724	 8,73073742124734E-02 
725	 8,76564010220547E-02 
726	 8,81112761317709E-02 
727	 8,86770149754072E-02 
728	 8,90310464220681E-02 
729	 8,93036859000075E-02 
730	 8,98146727600084E-02 
731	 9,02880445348432E-02 
732	 9,06245423262887E-02 
733	 9,08096484244239E-02 
734	 9,09169570323468E-02 
735	 9,10228209691895E-02 
736	 9,11817955256394E-02 
737	 9,15023617766758E-02 
738	 9,23128250580853E-02 
739	 9,26666151268075E-02 
740	 9,23321393688267E-02 
741	 9,23259652883609E-02 
742	 9,24847610767863E-02 
743	 9,25235088474531E-02 
744	 9,27096244020538E-02 
745	 9,30107092924055E-02 
746	 0,093182144321162 
747	 9,32535665007024E-02 
748	 9,32562326263489E-02 
749	 9,33060996335898E-02 
750	 9,34271333749126E-02 
751	 9,36283530260322E-02 
752	 9,38167424612885E-02 
753	 9,39928722770332E-02 
754	 9,42933622043629E-02 
755	 9,45567913977294E-02 
756	 9,46483548359362E-02 
757	 9,44354291187144E-02 
758	 9,42605200655527E-02 
759	 9,48730013539437E-02 
760	 0,095270261389534 
761	 0,095214263238485 
762	 9,52895489204959E-02 
763	 9,55041949603722E-02 
764	 9,58244556049661E-02 
765	 9,60374433497161E-02 
766	 9,60947486986484E-02 
767	 9,59310950672045E-02 
768	 9,61098417079898E-02 
769	 9,67222985934311E-02 
770	 9,68484065132465E-02 
771	 9,66850415961025E-02 
772	 9,65682982866764E-02 
773	 9,67985137804534E-02 
774	 9,72790527712574E-02 
775	 9,74916017443053E-02 
776	 9,75556195200146E-02 
777	 0,097552777207227 
778	 9,76904469006305E-02 
779	 9,77687136861485E-02 
780	 9,74516669789531E-02 
781	 9,75375128996777E-02 
782	 9,80386625530451E-02 
783	 0,09819375833924 
784	 9,82743431018513E-02 
785	 9,84335983582518E-02 
786	 9,83842042979202E-02 
787	 9,82843322607776E-02 
788	 9,84741493259689E-02 
789	 9,86679972439566E-02 
790	 9,87984963101414E-02 
791	 9,89893384454983E-02 
792	 9,90773834612293E-02 
793	 9,89815917737118E-02 
794	 9,93296951624892E-02 
795	 9,98414670398426E-02 
796	 9,96683320980435E-02 
797	 9,97248380635334E-02 
798	 0,100158362433475 
799	 0,100148824075495 
800	 9,99361174145659E-02 
801	 9,98050977934945E-02 
802	 9,99810196064755E-02 
803	 0,100309091601275 
804	 0,10026564917983 
805	 0,100244322128083 
806	 0,100387027447588 
807	 0,100649325647701 
808	 0,100875600003098 
809	 0,100913805465825 
810	 0,101061247535387 
811	 0,101290730562893 
812	 0,10136508774294 
813	 0,101312076719343 
814	 0,101225224563128 
815	 0,10158079327904 
816	 0,102020654158643 
817	 0,102074028011538 
818	 0,10185427702621 
819	 0,101550052169804 
820	 0,101665830602563 
821	 0,101618681825714 
822	 0,1012610881844 
823	 0,101526969171243 
824	 0,102008164098177 
825	 0,102070748688001 
826	 0,102140272894757 
827	 0,102299232695525 
828	 0,102534120461483 
829	 0,102595343155806 
830	 0,102409889019807 
831	 0,102483850747896 
832	 0,102538094786212 
833	 0,102123547189189 
834	 0,102812246768291 
835	 0,104174571057503 
836	 0,103535954416747 
837	 0,102797833901364 
838	 0,102983766486939 
839	 0,103449555718724 
840	 0,103708718791577 
841	 0,103191313331819 
842	 0,102871012140611 
843	 0,102866205076723 
844	 0,10257944004268 
845	 0,102703310749889 
846	 0,103416558585433 
847	 0,103141890270225 
848	 0,102635550276585 
849	 0,10319441761113 
850	 0,103642111388455 
851	 0,103679031449272 
852	 0,103306708643482 
853	 0,10312387858784 
854	 0,103386111112031 
855	 0,103293063829107 
856	 0,103142045116429 
857	 0,103449275080617 
858	 0,103784682849564 
859	 0,103833543865143 
860	 0,102847236057632 
861	 0,102521367580343 
862	 0,103469615807893 
863	 0,103266343469893 
864	 0,102783074817639 
865	 0,103452654140635 
866	 0,103479062637985 
867	 0,103086360064781 
868	 0,104479766676453 
869	 0,104689159987012 
870	 0,102812241284019 
871	 0,102717090369878 
872	 0,103363607541977 
873	 0,103094927385767 
874	 0,103480820707601 
875	 0,104325220227448 
876	 0,104103303368744 
877	 0,104193591251569 
878	 0,10498584175964 
879	 0,105216009490873 
880	 0,1051364248306 
881	 0,105116189360388 
882	 0,104824326311622 
883	 0,104427213356483 
884	 0,10444114743816 
885	 0,104729394037269 
886	 0,105148787634111 
887	 0,105227570480672 
888	 0,105228414700859 
889	 0,105415253043756 
890	 0,105650840877785 
891	 0,105544735247234 
892	 0,104159988326827 
893	 0,104006974025523 
894	 0,105469956534978 
895	 0,106353343180981 
896	 0,106206355470114 
897	 0,104890705492948 
898	 0,10398180800976 
899	 0,103854713573708 
900	 0,104641241630107 
901	 0,105251232694992 
902	 0,105345057210729 
903	 0,105140349261432 
904	 0,10500527060552 
905	 0,105111975572336 
906	 0,104859422653804 
907	 0,104380453219432 
908	 0,103969240987238 
909	 0,103795758411126 
910	 0,103931363223034 
911	 0,104459578111199 
912	 0,104771782661905 
913	 0,104607735886798 
914	 0,10432979154189 
915	 0,104498668110236 
916	 0,105575636614568 
917	 0,105225321148301 
918	 0,104051303015594 
919	 0,104861718706865 
920	 0,105472187830459 
921	 0,105106091460429 
922	 0,103731055635856 
923	 0,103163300138604 
924	 0,104704558984993 
925	 0,105553998527117 
926	 0,105514865403438 
927	 0,105145640588102 
928	 0,104354833673243 
929	 0,103600952526379 
930	 0,104429167058458 
931	 0,105157474181793 
932	 0,104899893798395 
933	 0,10518792102375 
934	 0,105219506811606 
935	 0,103865283352045 
936	 0,104338716398645 
937	 0,1059797594599 
938	 0,104798241727644 
939	 0,104013762691444 
940	 0,104520092727503 
941	 0,104238095828802 
942	 0,103750486113942 
943	 0,103622581678027 
944	 0,103220608667827 
945	 0,102487834139425 
946	 0,101475863030741 
947	 0,101103806635493 
948	 0,10120961467007 
949	 0,100156297450145 
950	 9,88648145576524E-02 
951	 9,80025064454611E-02 
952	 9,80828735877706E-02 
953	 9,81963353309701E-02 
954	 0,097248201109509 
955	 9,68027294392334E-02 
956	 9,71478996403484E-02 
957	 9,83482044643755E-02 
958	 9,80080709538262E-02 
959	 9,60274793079803E-02 
960	 9,60412679366398E-02 
961	 9,74105502256227E-02 
962	 9,91791699709906E-02 
963	 9,87412871581948E-02 
964	 9,70787648728028E-02 
965	 9,62893820765126E-02 
966	 9,57575278653539E-02 
967	 9,55385674383519E-02 
968	 9,61580785627782E-02 
969	 9,61782124654765E-02 
970	 9,53542871483597E-02 
971	 9,62646324597451E-02 
972	 9,64999643152419E-02 
973	 9,41094047592087E-02 
974	 9,37823056004964E-02 
975	 0,095326600769403 
976	 9,69671845709808E-02 
977	 9,66798913628112E-02 
978	 0,095106386907882 
979	 9,68651624222962E-02 
980	 9,80807312974402E-02 
981	 9,74037753741908E-02 
982	 9,92683361511302E-02 
983	 0,100151299642816 
984	 9,66751402312433E-02 
985	 9,57853315514572E-02 
986	 9,74664549391346E-02 
987	 9,91247787568591E-02 
988	 9,90594544725536E-02 
989	 9,78629806556895E-02 
990	 0,100419907148005 
991	 0,100405298430569 
992	 9,60125671860814E-02 
993	 9,75624251821569E-02 
994	 0,101212785073836 
995	 0,102012314152126 
996	 0,100213928787848 
997	 9,84133620714209E-02 
998	 0,101789391390027 
999	 0,101090043886203 
1000	 9,64982723417473E-02 
1001	 9,84395294108558E-02 
1002	 0,101112641234961 
1003	 0,101870457090884 
1004	 0,103495412928419 
1005	 0,104707118025038 
1006	 0,104252338565054 
1007	 0,10405291743247 
1008	 0,10457604191298 
1009	 0,10603337626701 
1010	 0,105412141450802 
1011	 0,10301101382017 
1012	 0,102272267791471 
1013	 0,103823790638414 
1014	 0,107047071091384 
1015	 0,107219194466863 
1016	 0,106419421834781 
1017	 0,106588154522147 
1018	 0,10643760455489 
1019	 0,106145312050928 
1020	 0,106195289622944 
1021	 0,107918249872815 
1022	 0,110631347510502 
1023	 0,111859788520995 
1024	 0,111952521226482 
1025	 0,110938091458385 
1026	 0,108380440737154 
1027	 0,108012283633601 
1028	 0,111383680287986 
1029	 0,110694947713412 
1030	 0,110187023744926 
1031	 0,115016119138249 
1032	 0,113216846362 
1033	 0,108223941153963 
1034	 0,111376053466978 
1035	 0,117066875804325 
1036	 0,121201636444808 
1037	 0,114924266717536 
1038	 0,111574805477743 
1039	 0,11475446449626 
1040	 0,107635774579645 
1041	 0,101972726826702 
1042	 0,107290508512019 
1043	 0,111222985035458 
1044	 0,114627334276203 
1045	 0,120584700059719 
1046	 0,122886816510924 
1047	 0,123591386444922 
1048	 0,130903050760903 
1049	 0,132212098013692 
1050	 0,125783580011428 
1051	 0,120022074718636 
1052	 0,117257270289283 
1053	 0,118479850228344 
1054	 0,121262278954189 
1055	 0,125514916266141 
1056	 0,130085819434737 
1057	 0,126948161027183 
1058	 0,119360350949256 
1059	 0,114181287382242 
1060	 0,113070975269881 
1061	 0,115141821245855 
1062	 0,117518627303206 
1063	 0,113702392224913 
1064	 0,107819341174991 
1065	 0,122808357321352 
1066	 0,135858312678641 
1067	 0,132918156278092 
1068	 9,86363199823114E-02 
1069	 8,37184722339159E-02 
1070	 0,120316493834554 
1071	 0,124892272063829 
1072	 0,116251916687144 
1073	 0,125295135254485 
1074	 0,132894549320663 
1075	 0,135295409184464 
