Wavelength	SCORFF200722.asd
325	 0,310720330946425 
326	 0,425151850157568 
327	 0,448606768180516 
328	 0,36429657439417 
329	 0,469949334611846 
330	 0,512414808139236 
331	 0,312329903124882 
332	 0,173902396932822 
333	 0,155285977199314 
334	 0,192469504258247 
335	 0,240420889858563 
336	 0,251940758088299 
337	 0,244460042113707 
338	 0,2150397529659 
339	 0,171357773683207 
340	 0,205314112679661 
341	 0,256092801489639 
342	 0,178917630656481 
343	 0,204506717430248 
344	 0,334937393588325 
345	 0,320122865188954 
346	 0,27352878703124 
347	 0,306361462551544 
348	 0,317897285554263 
349	 0,305073226807679 
350	 0,304396381640174 
351	 0,28112918876227 
352	 0,240355208671663 
353	 0,252654532323141 
354	 0,277678498312844 
355	 0,266421812651401 
356	 0,261683126747032 
357	 0,273888125805812 
358	 0,308626571070071 
359	 0,311924425784748 
360	 0,266060456331338 
361	 0,230999767943635 
362	 0,225450403458633 
363	 0,261201335445903 
364	 0,273710729832373 
365	 0,260342712121055 
366	 0,26253042605524 
367	 0,272355738708449 
368	 0,281668181098479 
369	 0,2648241359324 
370	 0,242292021382416 
371	 0,261733545976534 
372	 0,258398091623295 
373	 0,231953367323583 
374	 0,259710075804999 
375	 0,289820327057838 
376	 0,286655476442853 
377	 0,283820391013085 
378	 0,286918423447504 
379	 0,298308708603676 
380	 0,295554598235128 
381	 0,278080643998639 
382	 0,287895111611445 
383	 0,294902899988395 
384	 0,272979211468452 
385	 0,281495792226987 
386	 0,306860155277628 
387	 0,284682013464403 
388	 0,27326581382704 
389	 0,289537478537887 
390	 0,290386218500005 
391	 0,286384204394152 
392	 0,293656508082636 
393	 0,282524627480353 
394	 0,26063314341252 
395	 0,270069774360152 
396	 0,282280620300943 
397	 0,283865108864223 
398	 0,284780839511352 
399	 0,28745179235491 
400	 0,294767983197164 
401	 0,291605741762786 
402	 0,278474956625282 
403	 0,269250786263185 
404	 0,271555928835174 
405	 0,287571979832079 
406	 0,29126024715947 
407	 0,286895851247192 
408	 0,290581198325188 
409	 0,293710540632868 
410	 0,293471795122489 
411	 0,28883104046485 
412	 0,281680034036668 
413	 0,274332453682035 
414	 0,278038347804821 
415	 0,28797810857841 
416	 0,288538860103627 
417	 0,284910299643372 
418	 0,279915463202622 
419	 0,276545749423031 
420	 0,276522205188736 
421	 0,281543135141287 
422	 0,283803184626793 
423	 0,283150763958427 
424	 0,286605312596249 
425	 0,286519689775056 
426	 0,279624576167585 
427	 0,279178952239039 
428	 0,282731592643558 
429	 0,282583465889103 
430	 0,283103663086412 
431	 0,284532956083249 
432	 0,282718545290528 
433	 0,281817184274155 
434	 0,285199406817228 
435	 0,28522591245159 
436	 0,282460417326723 
437	 0,281186148416795 
438	 0,28328245500722 
439	 0,288335248795863 
440	 0,288250834596859 
441	 0,285948078115135 
442	 0,286035709067648 
443	 0,285379378388857 
444	 0,284303519122154 
445	 0,286044635713549 
446	 0,287917924151188 
447	 0,288190548065228 
448	 0,287440014195028 
449	 0,286364779882056 
450	 0,285915317348329 
451	 0,287089505034808 
452	 0,289493136483996 
453	 0,289884968558768 
454	 0,289596274882758 
455	 0,289949258157385 
456	 0,28941358741314 
457	 0,288611543348397 
458	 0,289623722051896 
459	 0,29196431633768 
460	 0,294669776460858 
461	 0,293225132142204 
462	 0,291038394353663 
463	 0,293169582848558 
464	 0,292256553962949 
465	 0,288289872150279 
466	 0,287289151869136 
467	 0,288802105284416 
468	 0,292176163808031 
469	 0,295244762841159 
470	 0,2963278973311 
471	 0,292705606912566 
472	 0,290375883318938 
473	 0,291158482573956 
474	 0,292629801777915 
475	 0,294028171050643 
476	 0,294670236545405 
477	 0,29298615468979 
478	 0,290526313772106 
479	 0,292401444553212 
480	 0,293974164402921 
481	 0,293238422288394 
482	 0,292406822345363 
483	 0,292457029880694 
484	 0,294481675674613 
485	 0,295407708277204 
486	 0,294730697083566 
487	 0,293951206938573 
488	 0,294124540237586 
489	 0,295733500880449 
490	 0,294976101899218 
491	 0,29302618514365 
492	 0,294238929717948 
493	 0,294047423569034 
494	 0,29158249587035 
495	 0,290788795090991 
496	 0,291719051009025 
497	 0,294011233606955 
498	 0,294009494503552 
499	 0,292065053537203 
500	 0,291891327884721 
501	 0,292798317974616 
502	 0,294193470207017 
503	 0,294437061310375 
504	 0,293983357191213 
505	 0,293920454905439 
506	 0,295132688148017 
507	 0,297107957810527 
508	 0,296377356355774 
509	 0,295137763972609 
510	 0,295503485778154 
511	 0,296932133919024 
512	 0,298305341239122 
513	 0,296999050903835 
514	 0,295763623047083 
515	 0,295770375611399 
516	 0,295977824036348 
517	 0,296291322120673 
518	 0,296699864446807 
519	 0,297616659560985 
520	 0,298785843786336 
521	 0,299099961775446 
522	 0,298736438327306 
523	 0,297976016609071 
524	 0,298093292430246 
525	 0,298903303587864 
526	 0,299651956217483 
527	 0,299525227170202 
528	 0,298665566367956 
529	 0,299760257782753 
530	 0,301035360133122 
531	 0,30028731150726 
532	 0,299219667775187 
533	 0,298475512387341 
534	 0,298709787235684 
535	 0,299035017481213 
536	 0,298900384268777 
537	 0,298421890669979 
538	 0,298091975271881 
539	 0,2987733822668 
540	 0,299514633847131 
541	 0,29995171331517 
542	 0,300043197679972 
543	 0,299972422323536 
544	 0,299936738409899 
545	 0,300086754649128 
546	 0,300522910860864 
547	 0,301487897971261 
548	 0,302146033506688 
549	 0,30211324741071 
550	 0,30198003587627 
551	 0,30193172615229 
552	 0,302101349512499 
553	 0,302838755440634 
554	 0,303814513932054 
555	 0,303420685622788 
556	 0,302784100288432 
557	 0,302798137885757 
558	 0,301837143598127 
559	 0,300598870035356 
560	 0,301577225450461 
561	 0,302182175088272 
562	 0,301545804859376 
563	 0,301388423942635 
564	 0,301291992306085 
565	 0,300502929867604 
566	 0,300503311938676 
567	 0,301391628277313 
568	 0,302080360844485 
569	 0,302817647018772 
570	 0,303698005003091 
571	 0,303917811347834 
572	 0,304004652256417 
573	 0,305386664067968 
574	 0,306622279348018 
575	 0,307303494420208 
576	 0,308185687786293 
577	 0,309168979160572 
578	 0,310092876398538 
579	 0,311167835252178 
580	 0,312133949283939 
581	 0,312038459313904 
582	 0,312068108693646 
583	 0,312881755922568 
584	 0,313735087834606 
585	 0,314599489287218 
586	 0,315682653740741 
587	 0,315961932426352 
588	 0,315551558522546 
589	 0,316352193452691 
590	 0,317652388324711 
591	 0,318679046113332 
592	 0,319206716174152 
593	 0,31946221388531 
594	 0,32029954059186 
595	 0,320817661768807 
596	 0,320725632841733 
597	 0,32109818810666 
598	 0,32158574337763 
599	 0,321497728358828 
600	 0,321397876144417 
601	 0,32137703203175 
602	 0,321174868510306 
603	 0,320845382682029 
604	 0,320456417091433 
605	 0,3203108712472 
606	 0,32010642259025 
607	 0,318892384200828 
608	 0,318005659307951 
609	 0,317910180348862 
610	 0,317968910712435 
611	 0,3179017884988 
612	 0,317445507489771 
613	 0,316562691340192 
614	 0,315676819414881 
615	 0,316155999735447 
616	 0,31668756937381 
617	 0,316447264847403 
618	 0,316175959777816 
619	 0,316104281428728 
620	 0,316509036582296 
621	 0,316648680973596 
622	 0,316443858838669 
623	 0,316916036612276 
624	 0,317215887703741 
625	 0,316472480477765 
626	 0,31627578641347 
627	 0,316711580467761 
628	 0,317008322648822 
629	 0,317131466653129 
630	 0,317054524589627 
631	 0,316851838314563 
632	 0,316940544304239 
633	 0,317972004795925 
634	 0,318767544767923 
635	 0,319065896762425 
636	 0,31936550606723 
637	 0,319957492527009 
638	 0,32103585160787 
639	 0,321948884169673 
640	 0,32258363068487 
641	 0,322975641287773 
642	 0,323496019173328 
643	 0,324243224521837 
644	 0,324768693438909 
645	 0,325016937345493 
646	 0,324982516565515 
647	 0,324704078435997 
648	 0,324283641938239 
649	 0,323959541148393 
650	 0,323668402547083 
651	 0,323325083833746 
652	 0,322547677177992 
653	 0,321611205731408 
654	 0,321206716442662 
655	 0,320694907701311 
656	 0,319855789753254 
657	 0,318788240218745 
658	 0,317531570232036 
659	 0,31614638960566 
660	 0,315156125482414 
661	 0,314524410646439 
662	 0,313867694012485 
663	 0,312781692879881 
664	 0,311234033983367 
665	 0,310714099817542 
666	 0,310483284473965 
667	 0,309078143237988 
668	 0,308533925198347 
669	 0,308988268757985 
670	 0,308600576986272 
671	 0,308143896883927 
672	 0,308212964763739 
673	 0,307782144428663 
674	 0,307178661783876 
675	 0,307665011071061 
676	 0,307838361003917 
677	 0,307308320979555 
678	 0,306971642781228 
679	 0,3070441730705 
680	 0,307675923888573 
681	 0,308540494191276 
682	 0,3093820645902 
683	 0,309747921485509 
684	 0,310075430541333 
685	 0,310737240339838 
686	 0,31234823512384 
687	 0,314451314083842 
688	 0,316071243765655 
689	 0,318113368285192 
690	 0,320856757696954 
691	 0,324162562868159 
692	 0,328001742420467 
693	 0,33234989591568 
694	 0,337231447277299 
695	 0,342528739342109 
696	 0,34791125268857 
697	 0,353975257563721 
698	 0,360839161877748 
699	 0,367601222903261 
700	 0,374444224626968 
701	 0,381728217076284 
702	 0,389107291534927 
703	 0,396358412966506 
704	 0,403239646092494 
705	 0,409652502063506 
706	 0,415549462787224 
707	 0,421100425298509 
708	 0,426529135607944 
709	 0,432186134958134 
710	 0,437307149828972 
711	 0,441748322868933 
712	 0,446023749751303 
713	 0,450137594556683 
714	 0,45405943113386 
715	 0,457568453613025 
716	 0,460753668651104 
717	 0,463954754143425 
718	 0,467044258485959 
719	 0,46983689227832 
720	 0,471469234517771 
721	 0,473057916867699 
722	 0,47609815336785 
723	 0,478338940258324 
724	 0,479558716346461 
725	 0,480993035201068 
726	 0,482376554897328 
727	 0,483560655776337 
728	 0,484559517445584 
729	 0,485582960401954 
730	 0,487012908353604 
731	 0,488259195720996 
732	 0,489107266409294 
733	 0,489560225185695 
734	 0,489920215193033 
735	 0,490455284896896 
736	 0,491039042464159 
737	 0,491712231555987 
738	 0,492696878526685 
739	 0,493348573238938 
740	 0,493470086438808 
741	 0,493535506866706 
742	 0,493738514502746 
743	 0,494242378876039 
744	 0,494686482943492 
745	 0,494998239420744 
746	 0,495258255715495 
747	 0,49547090760336 
748	 0,495662989471841 
749	 0,495965795891775 
750	 0,496288607474625 
751	 0,496454987831903 
752	 0,496930152207155 
753	 0,497719015891644 
754	 0,498387591405916 
755	 0,498786564754979 
756	 0,498840151287996 
757	 0,49884457082086 
758	 0,499074970071451 
759	 0,499983292630228 
760	 0,50074470796782 
761	 0,501124351354389 
762	 0,501504731368502 
763	 0,501945007505934 
764	 0,502484635930147 
765	 0,503101244891096 
766	 0,503730686264283 
767	 0,504238485463052 
768	 0,504725400970557 
769	 0,505168302596355 
770	 0,505221634501285 
771	 0,505227326035545 
772	 0,505603876776978 
773	 0,505698751629332 
774	 0,505612770500421 
775	 0,506140366646863 
776	 0,506520888795353 
777	 0,50642792950109 
778	 0,50658747853068 
779	 0,506821077778567 
780	 0,506755819721342 
781	 0,506538921344708 
782	 0,506302032686821 
783	 0,506332190926251 
784	 0,506476388813358 
785	 0,506618624419213 
786	 0,506685532354769 
787	 0,506805217744524 
788	 0,507257098389927 
789	 0,507349950046992 
790	 0,507057070357132 
791	 0,507168802340833 
792	 0,507529189770111 
793	 0,507967671429408 
794	 0,508220736292033 
795	 0,508405508742852 
796	 0,508886371315792 
797	 0,509411860901617 
798	 0,509857741491924 
799	 0,510045936843771 
800	 0,510313594398359 
801	 0,510951068735278 
802	 0,511347706906907 
803	 0,511488939896374 
804	 0,511624298703074 
805	 0,511827256600026 
806	 0,512179950424188 
807	 0,512861425171251 
808	 0,513462983587966 
809	 0,513553396989383 
810	 0,513547232285612 
811	 0,513592558030825 
812	 0,513877970932032 
813	 0,513880017119117 
814	 0,513494857710973 
815	 0,513503266339651 
816	 0,513824965667508 
817	 0,514274062436495 
818	 0,514935955366282 
819	 0,515513688300582 
820	 0,515074830860582 
821	 0,514964393056606 
822	 0,515688656467311 
823	 0,51594204318864 
824	 0,515892715602681 
825	 0,515931792484695 
826	 0,516630439846908 
827	 0,517700012549275 
828	 0,517749222382878 
829	 0,517837009469326 
830	 0,518424511192401 
831	 0,518670822026442 
832	 0,518727911637925 
833	 0,518918200906229 
834	 0,519608944280606 
835	 0,520652834459535 
836	 0,521340559133626 
837	 0,521569815570256 
838	 0,521404530094734 
839	 0,521831457477373 
840	 0,522380917637445 
841	 0,522240767808762 
842	 0,52176204049711 
843	 0,521238774642845 
844	 0,521230606494074 
845	 0,521631171882936 
846	 0,52225645618461 
847	 0,522390313569706 
848	 0,522050783866219 
849	 0,521402622959956 
850	 0,521714612120694 
851	 0,522648037330402 
852	 0,521935781207113 
853	 0,521208739649247 
854	 0,521254922809617 
855	 0,520940122775048 
856	 0,520535304694462 
857	 0,520558195876623 
858	 0,520968445913414 
859	 0,521429103253621 
860	 0,520950232437747 
861	 0,520314316947281 
862	 0,520052758989397 
863	 0,520651854015697 
864	 0,521401469101801 
865	 0,521334470909673 
866	 0,521774193763895 
867	 0,522678171615709 
868	 0,522968327323435 
869	 0,523150427935216 
870	 0,523519066012425 
871	 0,524419127733806 
872	 0,525092370812461 
873	 0,524655551448234 
874	 0,524812208016659 
875	 0,525751988791581 
876	 0,526882009494205 
877	 0,527847939432466 
878	 0,528463437716865 
879	 0,528932786139874 
880	 0,529342754145412 
881	 0,529768324077198 
882	 0,530195268122419 
883	 0,530539036855807 
884	 0,530450379649397 
885	 0,531095088312394 
886	 0,532524416459855 
887	 0,532671198341899 
888	 0,532355406861244 
889	 0,532500872347224 
890	 0,533354753462471 
891	 0,534206616788843 
892	 0,53336834854838 
893	 0,532790662114916 
894	 0,532967273010052 
895	 0,532920891970056 
896	 0,532988476555383 
897	 0,533327300786059 
898	 0,532601755975499 
899	 0,531673153929333 
900	 0,532421435184888 
901	 0,53279570924119 
902	 0,532358681612413 
903	 0,531816826866293 
904	 0,531490290396977 
905	 0,531565112870293 
906	 0,531759660998283 
907	 0,531825342229755 
908	 0,531484847469297 
909	 0,530614427247961 
910	 0,529841284174597 
911	 0,531225102722672 
912	 0,532172040495686 
913	 0,531607614392851 
914	 0,531216814574262 
915	 0,531245978936222 
916	 0,531779542461716 
917	 0,532322391625843 
918	 0,532852196062517 
919	 0,533744653549181 
920	 0,533857732588201 
921	 0,533173577304527 
922	 0,53356777343949 
923	 0,534505729306753 
924	 0,535369664297925 
925	 0,53547653801873 
926	 0,535098202285193 
927	 0,534945495076043 
928	 0,534924007997914 
929	 0,535140425388078 
930	 0,535996359696059 
931	 0,53659261908022 
932	 0,536522060221167 
933	 0,537010100717464 
934	 0,537644993331545 
935	 0,537754355438575 
936	 0,538382516978931 
937	 0,539237702044441 
938	 0,538833274122273 
939	 0,538655197346769 
940	 0,539152118997864 
941	 0,539500476832351 
942	 0,539495417753758 
943	 0,539016978550796 
944	 0,538314677969436 
945	 0,537742648998381 
946	 0,537853616118589 
947	 0,53762859158307 
948	 0,536806880680677 
949	 0,535541363582451 
950	 0,534771015694098 
951	 0,534904025365702 
952	 0,534652422476911 
953	 0,534092096573488 
954	 0,533500086296875 
955	 0,533146634641457 
956	 0,533114858326748 
957	 0,533568354262731 
958	 0,532973257346672 
959	 0,531305531583622 
960	 0,53115186272197 
961	 0,53120911744387 
962	 0,53049556971053 
963	 0,529988269576895 
964	 0,530043726628217 
965	 0,530975163327524 
966	 0,5309436547633 
967	 0,529961582822981 
968	 0,52966211920519 
969	 0,529302828168309 
970	 0,528771636607573 
971	 0,529112472259553 
972	 0,529131819496403 
973	 0,527910770249981 
974	 0,528280505834335 
975	 0,529345375205217 
976	 0,528613100049189 
977	 0,529433704708237 
978	 0,531641107428556 
979	 0,531248895700064 
980	 0,531815273741712 
981	 0,534565487174823 
982	 0,535868153454755 
983	 0,535558719861091 
984	 0,534032389617584 
985	 0,533992242022004 
986	 0,535210694484205 
987	 0,536170926786043 
988	 0,536018506287344 
989	 0,534950278996034 
990	 0,534769815966264 
991	 0,53500754593529 
992	 0,535521269108324 
993	 0,536735887846841 
994	 0,538604730003043 
995	 0,540855664617154 
996	 0,540996298448552 
997	 0,539963432088636 
998	 0,540490238841594 
999	 0,541252080232867 
1000	 0,542122374509775 
1001	 0,544086251500406 
1002	 0,544396079652441 
1003	 0,542508324751761 
1004	 0,5438729355112 
1005	 0,545728495593358 
1006	 0,545302806638704 
1007	 0,547428128531488 
1008	 0,551010880272093 
1009	 0,5528064624517 
1010	 0,552149402473113 
1011	 0,549105257895912 
1012	 0,544031580654875 
1013	 0,542709351489925 
1014	 0,547117672648547 
1015	 0,55261450919884 
1016	 0,554987608466129 
1017	 0,551705723141778 
1018	 0,551812687883095 
1019	 0,553391916692734 
1020	 0,551612269511273 
1021	 0,549728113866361 
1022	 0,549218459925595 
1023	 0,552247418486258 
1024	 0,552316736475246 
1025	 0,549196129387553 
1026	 0,553038601497963 
1027	 0,556842929198985 
1028	 0,556173821544807 
1029	 0,555546846662375 
1030	 0,556252648894513 
1031	 0,558853725553638 
1032	 0,557237422440204 
1033	 0,554459233936279 
1034	 0,558910086194452 
1035	 0,564431560382992 
1036	 0,567269848242152 
1037	 0,560998152628596 
1038	 0,555883549774065 
1039	 0,555444884058567 
1040	 0,54897407815516 
1041	 0,547466882895363 
1042	 0,558385885852434 
1043	 0,562465736604321 
1044	 0,561208574777447 
1045	 0,560615385238798 
1046	 0,564879888817513 
1047	 0,57072723154524 
1048	 0,56729220077397 
1049	 0,566958852277219 
1050	 0,570672559398555 
1051	 0,566289894008444 
1052	 0,564886554839228 
1053	 0,569712903098715 
1054	 0,565886967104474 
1055	 0,561815554000965 
1056	 0,565218458379372 
1057	 0,571613557240814 
1058	 0,574824392391765 
1059	 0,567393668817302 
1060	 0,566879629250826 
1061	 0,570515451385486 
1062	 0,562774317338363 
1063	 0,56296668430733 
1064	 0,572056481300779 
1065	 0,571517330304538 
1066	 0,571612391778467 
1067	 0,574118421398561 
1068	 0,563248157056768 
1069	 0,555597819768025 
1070	 0,563857739730358 
1071	 0,572596585645506 
1072	 0,573711593796218 
1073	 0,561295699747853 
1074	 0,555243488820599 
1075	 0,556121158207416 
