Wavelength	SCORFF200208.asd
325	-5,20324504993899E-02 
326	 0,249571134492223 
327	 0,305197048480393 
328	 0,098317350570368 
329	 0,16223290529071 
330	 0,213477395229011 
331	 4,56682624046641E-02 
332	 0,031991753692881 
333	 0,138503425998846 
334	 0,207722023875934 
335	 0,1992072767022 
336	 0,126277575389597 
337	 0,111278228996067 
338	 8,00798122736899E-02 
339	-0,019134395450791 
340	 2,48805817375357E-02 
341	 0,114722879216059 
342	 8,62813561032135E-03 
343	 2,04672250847657E-02 
344	 0,1689982613669 
345	 0,159840570494186 
346	 9,70788706048774E-02 
347	 8,60850740254645E-02 
348	 7,44301591532023E-02 
349	 6,74946545579952E-02 
350	 0,100180545732048 
351	 0,122458761141826 
352	 0,111573749594004 
353	 9,90153481004112E-02 
354	 0,079196440939603 
355	 4,24007714077407E-02 
356	 4,87863921596811E-02 
357	 8,50323153597919E-02 
358	 8,08885614819469E-02 
359	 0,075066665526563 
360	 7,80296059346737E-02 
361	 3,83824930753393E-02 
362	 6,16469263876017E-03 
363	 5,90114305115437E-02 
364	 9,04189490575269E-02 
365	 8,78468942293174E-02 
366	 8,53754843955712E-02 
367	 8,91406208869312E-02 
368	 9,80363483804992E-02 
369	 6,64617715546607E-02 
370	 2,33599537007134E-02 
371	 3,79361516115785E-02 
372	 4,80315776274254E-02 
373	 3,69574911406991E-02 
374	 1,12517501013746E-02 
375	 8,76064068968725E-04 
376	 2,41452694509615E-02 
377	 5,24055138805792E-02 
378	 6,79424171535137E-02 
379	 4,75320480213757E-02 
380	 4,07178113473791E-02 
381	 5,72995508974507E-02 
382	 5,08527403087429E-02 
383	 4,28488427458266E-02 
384	 5,30095854748241E-02 
385	 4,38492687609223E-02 
386	 2,39682172392086E-02 
387	 0,032802683827014 
388	 3,90441210624247E-02 
389	 0,030649125483544 
390	 1,18643011612816E-02 
391	 2,55706933892385E-03 
392	 0,026456076614544 
393	 2,54682830144979E-02 
394	 5,67206291454827E-03 
395	 0,027103994581437 
396	 3,83531425499784E-02 
397	 1,91109287947087E-02 
398	 1,30040426580434E-02 
399	 2,04011917068197E-02 
400	 3,48537011075637E-02 
401	 3,60535539619784E-02 
402	 2,34612226291949E-02 
403	 1,57067718592672E-02 
404	 1,93456038604874E-02 
405	 3,50470127562607E-02 
406	 2,89174157730997E-02 
407	 1,30922326212211E-02 
408	 2,23033175259067E-02 
409	 2,73377317926074E-02 
410	 2,27834978750414E-02 
411	 2,56291451071015E-02 
412	 2,75325343308064E-02 
413	 2,06971132252778E-02 
414	 1,74246883611416E-02 
415	 1,87399609180483E-02 
416	 2,21182091774999E-02 
417	 2,07984675886678E-02 
418	 1,36847769623984E-02 
419	 1,27232106693066E-02 
420	 1,47649995667854E-02 
421	 1,44801686776695E-02 
422	 0,014817134666149 
423	 1,65417247743237E-02 
424	 2,06178771360305E-02 
425	 2,31067647779644E-02 
426	 2,20395108160654E-02 
427	 0,022412364870424 
428	 2,26126187463776E-02 
429	 1,80692143977354E-02 
430	 1,74703250915437E-02 
431	 2,14696123004237E-02 
432	 2,07307882421967E-02 
433	 2,01652274685891E-02 
434	 2,39346896810957E-02 
435	 2,29791104330478E-02 
436	 0,018651641188061 
437	 1,84047969590174E-02 
438	 0,017779502942247 
439	 1,53545471270279E-02 
440	 1,25714335728459E-02 
441	 1,25615678624445E-02 
442	 1,89274632730172E-02 
443	 2,12412653170947E-02 
444	 1,93038154403852E-02 
445	 0,022182269197043 
446	 2,32593043237295E-02 
447	 1,91508251170875E-02 
448	 1,75883381613518E-02 
449	 1,84524423725522E-02 
450	 1,95582525789483E-02 
451	 1,93483493082316E-02 
452	 1,79180344505066E-02 
453	 1,88941501164796E-02 
454	 1,93937174744982E-02 
455	 1,68127562324873E-02 
456	 1,51129571605361E-02 
457	 1,50808917444436E-02 
458	 1,65306254152662E-02 
459	 1,83585207348961E-02 
460	 1,97116509555262E-02 
461	 1,91508174592133E-02 
462	 0,018418937562278 
463	 2,00163788137221E-02 
464	 1,81722754054035E-02 
465	 0,013807357790992 
466	 0,015059239780973 
467	 1,73990316060466E-02 
468	 1,77066187704923E-02 
469	 1,70797047184574E-02 
470	 1,67857677042677E-02 
471	 1,91957021058781E-02 
472	 2,08359930453123E-02 
473	 2,05002372680646E-02 
474	 1,85342201979899E-02 
475	 1,70386319262746E-02 
476	 1,78997322590946E-02 
477	 1,74894741723802E-02 
478	 1,59549986848025E-02 
479	 1,56646135944847E-02 
480	 1,61300020695326E-02 
481	 1,71353883545398E-02 
482	 1,88044985294318E-02 
483	 1,97506274279005E-02 
484	 1,80391716787409E-02 
485	 1,63697543036437E-02 
486	 1,55460583974879E-02 
487	 0,014924516095279 
488	 1,59529172352839E-02 
489	 1,91997420656245E-02 
490	 1,88085630090769E-02 
491	 0,015955899128233 
492	 1,54294792520059E-02 
493	 1,52977770323899E-02 
494	 1,51500528883612E-02 
495	 1,57127783558416E-02 
496	 1,65731384345203E-02 
497	 0,017220432392296 
498	 1,70423813703545E-02 
499	 1,63396630860521E-02 
500	 1,64381584684245E-02 
501	 1,67441709031078E-02 
502	 1,68971526188423E-02 
503	 1,68590482595032E-02 
504	 0,016668356958663 
505	 1,63672822884658E-02 
506	 1,66209161369401E-02 
507	 0,017115733172755 
508	 1,53697766691321E-02 
509	 1,43806417455774E-02 
510	 1,66577312884296E-02 
511	 1,65841673693896E-02 
512	 1,50032216730491E-02 
513	 1,71623968925084E-02 
514	 1,82598013123773E-02 
515	 1,66370006196575E-02 
516	 1,57904430058077E-02 
517	 1,58575358380501E-02 
518	 1,65323771778433E-02 
519	 1,64391268754938E-02 
520	 0,015835465232171 
521	 1,73787069291183E-02 
522	 1,80462962150205E-02 
523	 1,59773108224097E-02 
524	 1,60755432860413E-02 
525	 1,77356514953865E-02 
526	 1,79598929685074E-02 
527	 1,74061778058141E-02 
528	 1,65294712903287E-02 
529	 1,69509995548324E-02 
530	 0,017527671327913 
531	 1,68385690716498E-02 
532	 1,58861400946323E-02 
533	 0,015352697298973 
534	 1,66795239995056E-02 
535	 1,75374183824289E-02 
536	 1,66892441619265E-02 
537	 1,62816810979339E-02 
538	 1,62384525549976E-02 
539	 1,58076769253644E-02 
540	 1,57521525136828E-02 
541	 1,62486984519096E-02 
542	 1,71110070550664E-02 
543	 1,74302866893065E-02 
544	 1,64290741002352E-02 
545	 1,62071255131368E-02 
546	 1,67337296471466E-02 
547	 1,66492641658417E-02 
548	 1,63629068225666E-02 
549	 0,016094275993575 
550	 1,60297012797213E-02 
551	 0,016177459665581 
552	 1,65160500622201E-02 
553	 1,67421170374833E-02 
554	 1,67545775364725E-02 
555	 1,65553655347436E-02 
556	 1,65530864529363E-02 
557	 1,70220852907732E-02 
558	 1,69863349156566E-02 
559	 1,65306383285242E-02 
560	 1,62723884680284E-02 
561	 1,62423635543904E-02 
562	 1,64113214267954E-02 
563	 1,63692371072245E-02 
564	 1,61348398496831E-02 
565	 0,015784766246349 
566	 1,57881443725581E-02 
567	 1,62767161462777E-02 
568	 1,73452069749308E-02 
569	 1,78732407791978E-02 
570	 1,71552575003829E-02 
571	 1,64970907815857E-02 
572	 1,63218542681471E-02 
573	 1,70750494601781E-02 
574	 1,75970482372531E-02 
575	 1,75759115144882E-02 
576	 1,80075942873339E-02 
577	 0,01822475736566 
578	 1,74526570054351E-02 
579	 1,74280518497299E-02 
580	 1,82298646998251E-02 
581	 1,89024903035638E-02 
582	 0,018844421678183 
583	 1,79047787585578E-02 
584	 1,79688740541685E-02 
585	 1,87807286242882E-02 
586	 1,95441325858057E-02 
587	 1,89360312966337E-02 
588	 1,73700320902789E-02 
589	 1,87350504043844E-02 
590	 0,020415855346455 
591	 1,98904409378582E-02 
592	 1,94279218062037E-02 
593	 1,93039969309612E-02 
594	 1,89541517160592E-02 
595	 0,018964263846812 
596	 1,94767594910952E-02 
597	 1,95223055984652E-02 
598	 1,93067586735967E-02 
599	 1,92991608681793E-02 
600	 1,92979653305702E-02 
601	 1,92969840512654E-02 
602	 1,94771772068623E-02 
603	 1,94951314745376E-02 
604	 1,91435594967696E-02 
605	 1,94287105715106E-02 
606	 1,98688718008527E-02 
607	 1,87839937325004E-02 
608	 1,80891937913506E-02 
609	 0,018360253106606 
610	 1,83007159482334E-02 
611	 1,80887946697142E-02 
612	 1,80766752080292E-02 
613	 1,77061979431213E-02 
614	 1,71666271270194E-02 
615	 1,75012488666776E-02 
616	 1,79912118147766E-02 
617	 0,018108697806882 
618	 0,017493231525526 
619	 0,016922515786509 
620	 1,80947991178896E-02 
621	 1,87808502378729E-02 
622	 1,83750985311771E-02 
623	 1,78298569124108E-02 
624	 1,75933185541913E-02 
625	 1,80289607294581E-02 
626	 1,80500906037655E-02 
627	 1,77223022781404E-02 
628	 1,79729486437486E-02 
629	 1,82762965185523E-02 
630	 0,018340193125329 
631	 1,80752569254307E-02 
632	 1,78489825567075E-02 
633	 1,82836160028203E-02 
634	 1,83552195378316E-02 
635	 0,018039830200454 
636	 1,86032747550051E-02 
637	 1,90600758751201E-02 
638	 1,86275424066026E-02 
639	 1,88101932711165E-02 
640	 1,94805759969038E-02 
641	 1,96654285838749E-02 
642	 1,95127383394225E-02 
643	 1,92218560411025E-02 
644	 0,01972340559164 
645	 2,05429426714416E-02 
646	 2,09634572397448E-02 
647	 2,03931900390773E-02 
648	 1,92673020515911E-02 
649	 1,96017738322412E-02 
650	 2,01900460370391E-02 
651	 2,02126521143674E-02 
652	 2,01429920540145E-02 
653	 1,99505868827549E-02 
654	 1,94282453125978E-02 
655	 1,90788664227977E-02 
656	 1,89868510856302E-02 
657	 1,86121516133274E-02 
658	 1,81713161466209E-02 
659	 1,79212744152997E-02 
660	 1,78545927466272E-02 
661	 1,77703342538601E-02 
662	 0,017065227670734 
663	 1,64751274204229E-02 
664	 1,64022429237159E-02 
665	 1,67817992063072E-02 
666	 0,017144237171188 
667	 1,67813249829075E-02 
668	 1,66467889756379E-02 
669	 1,68807298180351E-02 
670	 1,68851136106228E-02 
671	 1,68329442737681E-02 
672	 1,68658851470087E-02 
673	 1,68533458237065E-02 
674	 1,67779553162039E-02 
675	 1,66507144742317E-02 
676	 1,64671970052265E-02 
677	 0,016293348551844 
678	 1,63837364804126E-02 
679	 0,016792478470227 
680	 1,75434413788886E-02 
681	 1,78427768935388E-02 
682	 1,76763970412252E-02 
683	 1,76634428718153E-02 
684	 1,77822567801633E-02 
685	 1,80094283690884E-02 
686	 1,81395165813327E-02 
687	 1,82510355601867E-02 
688	 1,85174605312636E-02 
689	 1,90231681500389E-02 
690	 1,96843169856634E-02 
691	 2,00086893009147E-02 
692	 2,03455649172179E-02 
693	 2,10437917779953E-02 
694	 2,22087286003188E-02 
695	 2,37263014339077E-02 
696	 2,52222710734244E-02 
697	 2,69765621409621E-02 
698	 2,91127287498064E-02 
699	 3,16034155833272E-02 
700	 3,43947700288005E-02 
701	 3,74222035479881E-02 
702	 4,07759820544033E-02 
703	 4,44458668095497E-02 
704	 0,048375997256297 
705	 5,24736567554144E-02 
706	 5,65981795723298E-02 
707	 6,01279484260287E-02 
708	 6,36511923192728E-02 
709	 6,84627672099653E-02 
710	 7,27475335422374E-02 
711	 7,61325796775771E-02 
712	 7,96964617177586E-02 
713	 8,34641238880422E-02 
714	 8,73863570711224E-02 
715	 9,10884523559943E-02 
716	 0,094401218599496 
717	 9,71335511871596E-02 
718	 9,97250706152541E-02 
719	 0,102353021351154 
720	 0,104700235672303 
721	 0,107049087461338 
722	 0,109791318649284 
723	 0,111884135355143 
724	 0,113352172418007 
725	 0,115232704528778 
726	 0,116841383312815 
727	 0,117845048102687 
728	 0,119153662340316 
729	 0,120600443207988 
730	 0,121655304504239 
731	 0,122708465517534 
732	 0,123793542318234 
733	 0,124522687639667 
734	 0,125346433733399 
735	 0,12659511896018 
736	 0,127064874692196 
737	 0,127210604273162 
738	 0,12883633309354 
739	 0,129795072804321 
740	 0,129544857285406 
741	 0,129989994827031 
742	 0,130743494752527 
743	 0,131182821915599 
744	 0,13163106111847 
745	 0,132122620771228 
746	 0,132648112285523 
747	 0,132782869269962 
748	 0,132440820145775 
749	 0,132724850893937 
750	 0,133395840232018 
751	 0,13387506840135 
752	 0,134363926255889 
753	 0,134842747840991 
754	 0,135105099477705 
755	 0,135397400853937 
756	 0,135869234132604 
757	 0,136091359401059 
758	 0,136218434303951 
759	 0,136693811471668 
760	 0,137225882827729 
761	 0,137621380857833 
762	 0,137428662674702 
763	 0,1373967759418 
764	 0,138191221998697 
765	 0,138644470535945 
766	 0,138696260192752 
767	 0,138777791666797 
768	 0,139013625490205 
769	 0,139408862124395 
770	 0,139531186302925 
771	 0,139614047130773 
772	 0,139968661586647 
773	 0,140363317521534 
774	 0,14067570228043 
775	 0,140731981481316 
776	 0,140676623343579 
777	 0,140609945423668 
778	 0,140604552464584 
779	 0,140682606834802 
780	 0,140849711703871 
781	 0,141262357915745 
782	 0,141739452209145 
783	 0,141493515923096 
784	 0,141371525006272 
785	 0,141883397976417 
786	 0,142250718182862 
787	 0,142470892786324 
788	 0,142764114513287 
789	 0,142736323819291 
790	 0,142490079040394 
791	 0,142936271707082 
792	 0,143391386863959 
793	 0,143314151964893 
794	 0,14323199212058 
795	 0,143269943109386 
796	 0,14349165504915 
797	 0,143804084092582 
798	 0,14412841511792 
799	 0,14433771937914 
800	 0,144344655771919 
801	 0,144124373366939 
802	 0,144384109793624 
803	 0,144961579396344 
804	 0,145123661409391 
805	 0,145062402525531 
806	 0,144941054531766 
807	 0,145322641592033 
808	 0,145787129107499 
809	 0,14585177548201 
810	 0,145887653856435 
811	 0,14598479837275 
812	 0,146181397797942 
813	 0,146324022711563 
814	 0,14640866168009 
815	 0,146846362702274 
816	 0,147298026489084 
817	 0,147336433338884 
818	 0,147493163133864 
819	 0,147839971479113 
820	 0,148256916482489 
821	 0,14843656108559 
822	 0,148292886383893 
823	 0,148335509729882 
824	 0,148544086393758 
825	 0,148819281321448 
826	 0,149486014196906 
827	 0,150260518527199 
828	 0,150053136937594 
829	 0,149830275151665 
830	 0,150055265211037 
831	 0,150162209758078 
832	 0,150111969483912 
833	 0,149931534681733 
834	 0,150430850132601 
835	 0,151384874949969 
836	 0,151398030074923 
837	 0,151276232576871 
838	 0,151480498434523 
839	 0,151991761210044 
840	 0,152424248072909 
841	 0,15224920767864 
842	 0,152125226434243 
843	 0,152064053431306 
844	 0,151346155860222 
845	 0,151431667234319 
846	 0,152807481058861 
847	 0,152822892353388 
848	 0,152194355144176 
849	 0,152359091946143 
850	 0,152547414094758 
851	 0,152566143142475 
852	 0,152364688266838 
853	 0,152117187045825 
854	 0,151949505872933 
855	 0,15190325005602 
856	 0,152086389836128 
857	 0,152624248724387 
858	 0,152700551788518 
859	 0,152310290559425 
860	 0,152156466740683 
861	 0,151966936939439 
862	 0,151740638406355 
863	 0,152281360050272 
864	 0,153090616618869 
865	 0,153422967648586 
866	 0,153521792766271 
867	 0,153647590169258 
868	 0,154591673880527 
869	 0,154687600446428 
870	 0,1535032477858 
871	 0,15367016981832 
872	 0,154442661637473 
873	 0,154634784904135 
874	 0,155016794668013 
875	 0,155604615689217 
876	 0,156056719241491 
877	 0,156340504341621 
878	 0,156500637424765 
879	 0,156936468265624 
880	 0,157393481065384 
881	 0,157577495304905 
882	 0,157834653183085 
883	 0,158229044602841 
884	 0,158740809674089 
885	 0,159285968721574 
886	 0,159719855946909 
887	 0,159584193483728 
888	 0,159321405157075 
889	 0,159385273727844 
890	 0,159860902639157 
891	 0,160175722269587 
892	 0,158917667220518 
893	 0,158890120329322 
894	 0,160452427885592 
895	 0,160822938339154 
896	 0,160576652170706 
897	 0,160274451186769 
898	 0,160096924093576 
899	 0,160057275927725 
900	 0,160075179923452 
901	 0,160111274882198 
902	 0,160197855347109 
903	 0,160469740409114 
904	 0,16105294396079 
905	 0,161827479981065 
906	 0,161396447954845 
907	 0,160596745568211 
908	 0,16084370972705 
909	 0,160256964551121 
910	 0,159246167120172 
911	 0,160613575241832 
912	 0,161406019195666 
913	 0,160520281120063 
914	 0,160416838495389 
915	 0,160878446981466 
916	 0,161393386671311 
917	 0,161409342464854 
918	 0,161220653849619 
919	 0,161919695398563 
920	 0,162647456823621 
921	 0,16289125961909 
922	 0,161815631962537 
923	 0,160780306548678 
924	 0,160972426387042 
925	 0,162023852776477 
926	 0,163004582794778 
927	 0,162411679696706 
928	 0,161826908751961 
929	 0,161677835835034 
930	 0,161628786013113 
931	 0,161970580125554 
932	 0,162659930475271 
933	 0,162349701243997 
934	 0,161469310153716 
935	 0,16080709493216 
936	 0,161745539107337 
937	 0,163209867754333 
938	 0,16112073758456 
939	 0,160153031871107 
940	 0,161407623325523 
941	 0,160506660146857 
942	 0,159398911901366 
943	 0,159842799440441 
944	 0,159262283415156 
945	 0,158125559217704 
946	 0,158064023054133 
947	 0,157901819047293 
948	 0,157411481038037 
949	 0,157035308507876 
950	 0,156488405661896 
951	 0,155688478483805 
952	 0,155253061807146 
953	 0,154596789591953 
954	 0,153018189355212 
955	 0,152263062252946 
956	 0,152441151762233 
957	 0,152991629686797 
958	 0,152179476066928 
959	 0,15015476789877 
960	 0,150688879950246 
961	 0,151933686288386 
962	 0,152178004294575 
963	 0,150392071094053 
964	 0,148459201928026 
965	 0,14938075668299 
966	 0,150214180049714 
967	 0,15024211380059 
968	 0,149726001971249 
969	 0,149034677282152 
970	 0,148551362953004 
971	 0,149309931858623 
972	 0,149203385936193 
973	 0,146704522858432 
974	 0,147350517596984 
975	 0,149460180254346 
976	 0,148345005910635 
977	 0,14803361721405 
978	 0,149028385855796 
979	 0,149016416548232 
980	 0,14997578017153 
981	 0,152346326366358 
982	 0,152830030036667 
983	 0,152445199306719 
984	 0,152450948032581 
985	 0,151435175324736 
986	 0,150500344328265 
987	 0,152201684274452 
988	 0,152620463199876 
989	 0,151573326860466 
990	 0,15297676420677 
991	 0,153191170652297 
992	 0,151133008396874 
993	 0,152287538415983 
994	 0,154901243176399 
995	 0,156541617751019 
996	 0,156100615705717 
997	 0,154864137125418 
998	 0,155833290704985 
999	 0,156176977488749 
1000	 0,155730470485339 
1001	 0,15673809066267 
1002	 0,157955618113829 
1003	 0,158760445089211 
1004	 0,159488242850617 
1005	 0,160065953845013 
1006	 0,160244781246887 
1007	 0,157680848651825 
1008	 0,155600462529354 
1009	 0,16021963375707 
1010	 0,162146296601191 
1011	 0,159977133012165 
1012	 0,15753888952051 
1013	 0,158373365287343 
1014	 0,162760480245757 
1015	 0,162683997395333 
1016	 0,161494842800829 
1017	 0,162496462804236 
1018	 0,165673476644817 
1019	 0,167718953376744 
1020	 0,163974047087505 
1021	 0,163764902956336 
1022	 0,167280080374499 
1023	 0,168507200305777 
1024	 0,169147373187521 
1025	 0,169729870757893 
1026	 0,170708849962796 
1027	 0,17186299630743 
1028	 0,172546413039277 
1029	 0,168994037555162 
1030	 0,167361217144536 
1031	 0,17419862347946 
1032	 0,174332418763682 
1033	 0,171524742232937 
1034	 0,179468443582519 
1035	 0,18213717657868 
1036	 0,177549077294911 
1037	 0,174810262444066 
1038	 0,177211323312912 
1039	 0,18316802538908 
1040	 0,175096764542033 
1041	 0,168209463927407 
1042	 0,174224528375781 
1043	 0,172945129210771 
1044	 0,169896006195102 
1045	 0,175769776061002 
1046	 0,177146415676794 
1047	 0,177090558427132 
1048	 0,189808482465095 
1049	 0,194905813488045 
1050	 0,189304945044421 
1051	 0,185858594702037 
1052	 0,181780667798686 
1053	 0,177191245497687 
1054	 0,179091328648128 
1055	 0,184412254675566 
1056	 0,1889806911811 
1057	 0,187787639115226 
1058	 0,179732207632171 
1059	 0,166025082523286 
1060	 0,172675939403093 
1061	 0,188214305724582 
1062	 0,173987770549103 
1063	 0,170121343161783 
1064	 0,183079993779061 
1065	 0,191601404982063 
1066	 0,191188914399273 
1067	 0,180425364298494 
1068	 0,161427626936472 
1069	 0,165906161420559 
1070	 0,208029364005649 
1071	 0,211222419819771 
1072	 0,198824004387155 
1073	 0,205606033621725 
1074	 0,202086481922919 
1075	 0,190070727088064 
