Wavelength	SCORFF200456.asd
325	 0,295489924527897 
326	 0,360739427671038 
327	 0,337667897942853 
328	 0,246573403210143 
329	 0,391113472328405 
330	 0,504534178374553 
331	 0,402829607850528 
332	 0,234578985909449 
333	 0,138271797312265 
334	 0,243375543902711 
335	 0,359891489333339 
336	 0,364678202792957 
337	 0,312627427387279 
338	 0,243966596480336 
339	 0,229976094415147 
340	 0,218044952445942 
341	 0,205262638184221 
342	 0,183745350758784 
343	 0,264063677058331 
344	 0,399650110602057 
345	 0,364897120276163 
346	 0,268296398938176 
347	 0,223625751279939 
348	 0,24241580851656 
349	 0,298382802620991 
350	 0,343796299743141 
351	 0,360198578359472 
352	 0,338993260673314 
353	 0,311855560725345 
354	 0,299606547189464 
355	 0,325897035881435 
356	 0,317054811878492 
357	 0,28025797042 
358	 0,274718923193688 
359	 0,290772245153236 
360	 0,318232226416066 
361	 0,297188291522043 
362	 0,266845550309812 
363	 0,295097329108194 
364	 0,300289458885875 
365	 0,282385652248091 
366	 0,305443004428607 
367	 0,322140452622093 
368	 0,307411672991647 
369	 0,303767426253012 
370	 0,309386198575367 
371	 0,310057972986251 
372	 0,31374071869435 
373	 0,321362260562102 
374	 0,329288759747692 
375	 0,329524590448029 
376	 0,317956766860951 
377	 0,310858369687917 
378	 0,309349298133861 
379	 0,306430119044516 
380	 0,31746511804474 
381	 0,341717335291347 
382	 0,349502161587212 
383	 0,344197575034631 
384	 0,332006609214707 
385	 0,32025649696305 
386	 0,316104736226368 
387	 0,335304024184433 
388	 0,336302880109729 
389	 0,310422312322873 
390	 0,305431438093064 
391	 0,313817248308572 
392	 0,322073556501839 
393	 0,322006776198916 
394	 0,317092700848584 
395	 0,325377182101836 
396	 0,328564922553623 
397	 0,32016949986526 
398	 0,321012338230577 
399	 0,327685847813309 
400	 0,332198122138404 
401	 0,332253949432607 
402	 0,328414940287205 
403	 0,324053849088835 
404	 0,328527172090861 
405	 0,344923593626979 
406	 0,342450798899207 
407	 0,33102132176693 
408	 0,339597383453417 
409	 0,345402007433714 
410	 0,342153793150006 
411	 0,333252555644519 
412	 0,325083257796977 
413	 0,323416606804213 
414	 0,331621785622171 
415	 0,341967333078486 
416	 0,334971425025596 
417	 0,328124049695405 
418	 0,328574904574824 
419	 0,33094202821632 
420	 0,333485357563166 
421	 0,334565118663392 
422	 0,336687655216369 
423	 0,339068694465612 
424	 0,338019969306548 
425	 0,3344700155278 
426	 0,329738443475033 
427	 0,329878605770076 
428	 0,332943185807161 
429	 0,334096638623893 
430	 0,334022295176876 
431	 0,333583052773609 
432	 0,337057251263855 
433	 0,337274692767902 
434	 0,328844294914681 
435	 0,330050610257012 
436	 0,338155190475488 
437	 0,338358633814468 
438	 0,336261203926362 
439	 0,334169062380168 
440	 0,332821951439325 
441	 0,333525810040065 
442	 0,337661394542031 
443	 0,338307361411627 
444	 0,335610549241292 
445	 0,33598813981755 
446	 0,337457426020095 
447	 0,338695974355898 
448	 0,339270589701869 
449	 0,339269400271775 
450	 0,338885440584004 
451	 0,34002238101344 
452	 0,342648612428809 
453	 0,343827954219315 
454	 0,343803887759064 
455	 0,3429431229964 
456	 0,340524667938502 
457	 0,33877050305442 
458	 0,343810052402732 
459	 0,347985237307391 
460	 0,348097345747799 
461	 0,346917985022542 
462	 0,345832448603366 
463	 0,346296693738775 
464	 0,345375715417883 
465	 0,343613082794361 
466	 0,345479974086438 
467	 0,347614213677105 
468	 0,347729460019378 
469	 0,346785545813673 
470	 0,346730888261273 
471	 0,351680519670607 
472	 0,352042232552879 
473	 0,347120208787705 
474	 0,349720031521061 
475	 0,353456771386957 
476	 0,35158124339859 
477	 0,349158700257727 
478	 0,347574167317079 
479	 0,347625395926357 
480	 0,348113695644473 
481	 0,348481631917869 
482	 0,349270761831596 
483	 0,350290971704991 
484	 0,351298341724236 
485	 0,350933823321288 
486	 0,349325011804553 
487	 0,347972953142685 
488	 0,348509030652621 
489	 0,35168409652698 
490	 0,351967557504741 
491	 0,350280601014759 
492	 0,350978018843616 
493	 0,35102349336854 
494	 0,349837790613643 
495	 0,349663967705411 
496	 0,350344280594342 
497	 0,351484378374781 
498	 0,352133523037851 
499	 0,352296742240237 
500	 0,352937585942161 
501	 0,353065195375792 
502	 0,352307668501614 
503	 0,352394850229434 
504	 0,352908809500432 
505	 0,352548705927076 
506	 0,354034359427475 
507	 0,357082317948234 
508	 0,357192732984741 
509	 0,355833763141346 
510	 0,354624828329983 
511	 0,35475100999939 
512	 0,355679548039279 
513	 0,355277769752181 
514	 0,355103559429572 
515	 0,355608187536732 
516	 0,35523023898891 
517	 0,354599644985873 
518	 0,354779250817184 
519	 0,355148840174777 
520	 0,355535286971667 
521	 0,355858439435514 
522	 0,356351465670096 
523	 0,357167852279928 
524	 0,358163083234323 
525	 0,358839246147956 
526	 0,358171701315773 
527	 0,357386436631021 
528	 0,357018425763076 
529	 0,357232271932647 
530	 0,357525993989484 
531	 0,357320133116723 
532	 0,356685788643254 
533	 0,355898238849159 
534	 0,355598217980345 
535	 0,356006641415133 
536	 0,356967558127207 
537	 0,35599346117168 
538	 0,354375608284496 
539	 0,355116194664597 
540	 0,35543303979877 
541	 0,354895548471473 
542	 0,355667598844645 
543	 0,356671907829979 
544	 0,356772464797486 
545	 0,356311457268085 
546	 0,355820093128245 
547	 0,35652823595382 
548	 0,357377663481994 
549	 0,357866623100336 
550	 0,3585571552406 
551	 0,358947834891648 
552	 0,358149044519881 
553	 0,358054805030946 
554	 0,35888125452124 
555	 0,359173276292799 
556	 0,358959848614952 
557	 0,358327034523469 
558	 0,357570745461646 
559	 0,357102422749344 
560	 0,357804449776306 
561	 0,358140153122624 
562	 0,357723328541574 
563	 0,358510052922247 
564	 0,359425988113561 
565	 0,358848069577282 
566	 0,358751708766292 
567	 0,359543991355286 
568	 0,360711968825587 
569	 0,361979666687093 
570	 0,363131356677312 
571	 0,364249307339749 
572	 0,365360421764071 
573	 0,366536279816356 
574	 0,36759308197428 
575	 0,368421462447151 
576	 0,368904073751062 
577	 0,369180624472766 
578	 0,369440142347638 
579	 0,370718918808316 
580	 0,372592732469795 
581	 0,372943635089152 
582	 0,373487894016047 
583	 0,375000070179591 
584	 0,375310423108301 
585	 0,375276100635898 
586	 0,376977587814912 
587	 0,377555593179175 
588	 0,376797483986622 
589	 0,377857520944947 
590	 0,379215196172803 
591	 0,379359649249011 
592	 0,379366241000675 
593	 0,379522935743003 
594	 0,380036230945805 
595	 0,380546936071144 
596	 0,380851943175109 
597	 0,380868127724136 
598	 0,380894074589244 
599	 0,381403534680943 
600	 0,381329673136383 
601	 0,380680249878153 
602	 0,380713341983108 
603	 0,380824755631641 
604	 0,380520974095052 
605	 0,380107819979463 
606	 0,379558229010777 
607	 0,378559802562342 
608	 0,378102907481419 
609	 0,378439192848373 
610	 0,378509068761862 
611	 0,378383137931104 
612	 0,378270657604768 
613	 0,378011046736168 
614	 0,377760026330623 
615	 0,378127122121811 
616	 0,378514816760693 
617	 0,378510089098263 
618	 0,378050490330145 
619	 0,377733830828153 
620	 0,378849813220324 
621	 0,37914270516959 
622	 0,378206329961473 
623	 0,377992334858053 
624	 0,37819706132146 
625	 0,378392394570511 
626	 0,378846484095309 
627	 0,379367688729126 
628	 0,379305153172392 
629	 0,379221554763333 
630	 0,379460588188648 
631	 0,380214794311976 
632	 0,381020932079874 
633	 0,38108097438807 
634	 0,381478312104597 
635	 0,382543815735032 
636	 0,384308668610823 
637	 0,385619448966817 
638	 0,385591521186858 
639	 0,386001803486668 
640	 0,3867942912122 
641	 0,3868701473262 
642	 0,387254075394025 
643	 0,388206069505189 
644	 0,388733269887132 
645	 0,388851563087792 
646	 0,388716214092169 
647	 0,388288055658756 
648	 0,387789185347529 
649	 0,387957669423008 
650	 0,387927088804099 
651	 0,387159218142039 
652	 0,386364590148716 
653	 0,385848845598532 
654	 0,386060836358998 
655	 0,385830086801642 
656	 0,38492158536736 
657	 0,384424875910872 
658	 0,383893723659555 
659	 0,382833561214692 
660	 0,382170714839504 
661	 0,381876505501406 
662	 0,38128772282816 
663	 0,380571319201955 
664	 0,379879769231692 
665	 0,379763260467017 
666	 0,379728692406931 
667	 0,378915115124353 
668	 0,378168004484129 
669	 0,377761835394077 
670	 0,377820006444635 
671	 0,377539316317042 
672	 0,376389481349379 
673	 0,3760613578611 
674	 0,376438133250909 
675	 0,376509235109573 
676	 0,376600313284353 
677	 0,376798627615901 
678	 0,37699368200753 
679	 0,37759727506919 
680	 0,379078725456751 
681	 0,380190444334106 
682	 0,380821437076865 
683	 0,381580968474207 
684	 0,382861674306863 
685	 0,384858976315219 
686	 0,386961880122302 
687	 0,389100826613485 
688	 0,391325044205643 
689	 0,393704466414794 
690	 0,39637758034641 
691	 0,399769674997156 
692	 0,403451337149764 
693	 0,407036849094308 
694	 0,410963510229881 
695	 0,415054417238153 
696	 0,418615027456613 
697	 0,422646267526311 
698	 0,427353156527589 
699	 0,431223668866795 
700	 0,434958420157347 
701	 0,439632842965679 
702	 0,443782506797774 
703	 0,447357800180419 
704	 0,451519835575581 
705	 0,455558225142848 
706	 0,459018528793086 
707	 0,462112430332068 
708	 0,465125277951833 
709	 0,468492664066521 
710	 0,471855605718788 
711	 0,475092108845415 
712	 0,47818605114433 
713	 0,481160507708995 
714	 0,484031908525125 
715	 0,486694946191927 
716	 0,489135054511572 
717	 0,491336350949822 
718	 0,493610257007863 
719	 0,495984465680269 
720	 0,497705769443859 
721	 0,499230368380493 
722	 0,501224306046806 
723	 0,503036093562745 
724	 0,504625437475858 
725	 0,506440736945439 
726	 0,508017882290304 
727	 0,509096324701307 
728	 0,51004000422502 
729	 0,511055671269605 
730	 0,512432154148289 
731	 0,513449447010208 
732	 0,514023321038703 
733	 0,514816205408437 
734	 0,515801348927143 
735	 0,516898452393306 
736	 0,517624705807733 
737	 0,518164533339483 
738	 0,519285002308224 
739	 0,520050360532083 
740	 0,520205390785861 
741	 0,520473674598552 
742	 0,520850616272058 
743	 0,521258963927175 
744	 0,521722997051613 
745	 0,522229155060516 
746	 0,522735820945484 
747	 0,523245571793327 
748	 0,523741928776238 
749	 0,524116522409004 
750	 0,524442326486132 
751	 0,524849625818776 
752	 0,525261561761241 
753	 0,525680966674083 
754	 0,526172022880825 
755	 0,526742191897337 
756	 0,527364458208722 
757	 0,527703324459361 
758	 0,52803654269889 
759	 0,529044199400626 
760	 0,530006586827508 
761	 0,53061945306004 
762	 0,530706889215027 
763	 0,530864727012097 
764	 0,531628616113221 
765	 0,532227543995572 
766	 0,532665474671975 
767	 0,533388424848771 
768	 0,533949831287125 
769	 0,534213788108567 
770	 0,534513887850887 
771	 0,534845558599289 
772	 0,535162999970318 
773	 0,535209481704449 
774	 0,535123510412396 
775	 0,535508371935455 
776	 0,535877017602799 
777	 0,535971480956167 
778	 0,535910925306734 
779	 0,535846555178068 
780	 0,53598077199804 
781	 0,535893030031549 
782	 0,535652217543465 
783	 0,535880082466759 
784	 0,536270507440745 
785	 0,53658411244335 
786	 0,536664307077819 
787	 0,536637548120451 
788	 0,536775984863395 
789	 0,536906611810018 
790	 0,537035419448242 
791	 0,537343299812778 
792	 0,537825291644472 
793	 0,538430349857041 
794	 0,53875859429527 
795	 0,538848687180411 
796	 0,538914831754433 
797	 0,539168906820326 
798	 0,539650537401662 
799	 0,540073838131698 
800	 0,540493591691633 
801	 0,54095713889052 
802	 0,541179619086712 
803	 0,541257329233999 
804	 0,541553167582995 
805	 0,5419214854886 
806	 0,542294692331874 
807	 0,542571137840431 
808	 0,542837847159516 
809	 0,543183913642532 
810	 0,543293097309171 
811	 0,543262223852075 
812	 0,543573441040537 
813	 0,543679910143454 
814	 0,543466173434209 
815	 0,543723757361399 
816	 0,544021095622064 
817	 0,543792465144249 
818	 0,544007421660396 
819	 0,544648667997223 
820	 0,545011514867935 
821	 0,545254185556356 
822	 0,545438016988379 
823	 0,545590484553536 
824	 0,545637477109887 
825	 0,545489571653356 
826	 0,546207704870574 
827	 0,547429480890304 
828	 0,547147430962773 
829	 0,547061547421441 
830	 0,547882550890565 
831	 0,548020375812226 
832	 0,54785737496082 
833	 0,548134655869003 
834	 0,548713307777718 
835	 0,549392392594184 
836	 0,549556676619056 
837	 0,550002088165323 
838	 0,551034143308715 
839	 0,551639027300382 
840	 0,551697815527596 
841	 0,551231360291923 
842	 0,550990274481374 
843	 0,551084993241151 
844	 0,551055178044393 
845	 0,5511946959569 
846	 0,55160498951324 
847	 0,551898078601348 
848	 0,551940790717558 
849	 0,551623945927232 
850	 0,55190991257196 
851	 0,552488133734233 
852	 0,551491706369852 
853	 0,550470566981048 
854	 0,550240763595531 
855	 0,55003193902601 
856	 0,549961260932582 
857	 0,55028198157786 
858	 0,550422815640063 
859	 0,550306352501301 
860	 0,550236257890181 
861	 0,549964567776031 
862	 0,549525090921093 
863	 0,549878757479537 
864	 0,550671265187823 
865	 0,551301224695088 
866	 0,551647381396726 
867	 0,551766356071517 
868	 0,551978769532619 
869	 0,552227654118198 
870	 0,552562321703686 
871	 0,553424043188644 
872	 0,554116867129146 
873	 0,553819265654403 
874	 0,554049735808522 
875	 0,554880408013052 
876	 0,555472585803037 
877	 0,556105875302622 
878	 0,556885673439361 
879	 0,557886274760604 
880	 0,558759278696761 
881	 0,559130641863517 
882	 0,55912220549937 
883	 0,559028427241979 
884	 0,559457958524354 
885	 0,560227362897426 
886	 0,561099281015537 
887	 0,561277372413608 
888	 0,561189544998949 
889	 0,561270410822991 
890	 0,561082485612125 
891	 0,560828630541155 
892	 0,561093372149217 
893	 0,561308147605125 
894	 0,56128659784086 
895	 0,561068060532753 
896	 0,561121506104568 
897	 0,561635141000701 
898	 0,560678764150148 
899	 0,55930050668808 
900	 0,559835960648541 
901	 0,560738317718118 
902	 0,561226335853201 
903	 0,560210663914495 
904	 0,559164478395235 
905	 0,558965555264048 
906	 0,558643652804252 
907	 0,558080950348728 
908	 0,55728037437277 
909	 0,557036812241051 
910	 0,557553945233818 
911	 0,55892203959997 
912	 0,559532106815627 
913	 0,55876058863658 
914	 0,557979828656894 
915	 0,558046480434383 
916	 0,559632541134411 
917	 0,56044475341822 
918	 0,560373368626819 
919	 0,560559961590321 
920	 0,560033529740448 
921	 0,558890793862843 
922	 0,558838330502998 
923	 0,559647771676392 
924	 0,560922837025091 
925	 0,561468856142073 
926	 0,561605873923871 
927	 0,562343021428802 
928	 0,562551480771198 
929	 0,562213226008552 
930	 0,562390279686985 
931	 0,56281122071205 
932	 0,56327016463803 
933	 0,563439998076817 
934	 0,563820898479667 
935	 0,565047512872763 
936	 0,565479790705365 
937	 0,56495184780689 
938	 0,56400047606828 
939	 0,563624440780376 
940	 0,564134975485108 
941	 0,564650638371988 
942	 0,564735292579789 
943	 0,56414483991432 
944	 0,564090144523804 
945	 0,564252964018147 
946	 0,563658397629861 
947	 0,563025771136979 
948	 0,562487601720243 
949	 0,561823258801147 
950	 0,560597899460704 
951	 0,558949654745553 
952	 0,559469232624211 
953	 0,560052425958802 
954	 0,55800684024481 
955	 0,556993929211271 
956	 0,557189594916046 
957	 0,557130027889612 
958	 0,555857005657141 
959	 0,553770429889481 
960	 0,554491868653556 
961	 0,555650931628179 
962	 0,555282158410713 
963	 0,553672604130038 
964	 0,552387750036441 
965	 0,553666303778595 
966	 0,554032155516528 
967	 0,553414380886071 
968	 0,554650502626687 
969	 0,554997233883992 
970	 0,55360849876928 
971	 0,552673354710547 
972	 0,552001927160406 
973	 0,551431627531706 
974	 0,552466695231175 
975	 0,554404663671942 
976	 0,555649349414864 
977	 0,555275121526475 
978	 0,553774931681969 
979	 0,553715822890125 
980	 0,554737155495417 
981	 0,556441137242098 
982	 0,557692337660755 
983	 0,557650148340588 
984	 0,555906994166904 
985	 0,556199684733539 
986	 0,558140574425013 
987	 0,559514960272369 
988	 0,560679457472136 
989	 0,561178841414251 
990	 0,559292852508868 
991	 0,557826375971211 
992	 0,558432438455011 
993	 0,561064478112064 
994	 0,563317927928044 
995	 0,562958261522854 
996	 0,563445900729796 
997	 0,564572039608215 
998	 0,564622284413774 
999	 0,56572286973716 
1000	 0,567463263144108 
1001	 0,566095361608725 
1002	 0,565483074396433 
1003	 0,567220848335426 
1004	 0,568352782952874 
1005	 0,568534817431959 
1006	 0,567978155396188 
1007	 0,570473705818611 
1008	 0,573756787235176 
1009	 0,572798958391667 
1010	 0,570000982841996 
1011	 0,567366878557345 
1012	 0,568614000845792 
1013	 0,572723296502177 
1014	 0,577614885315572 
1015	 0,576168365020284 
1016	 0,573287604786367 
1017	 0,573574229065029 
1018	 0,575882704355303 
1019	 0,577561632399492 
1020	 0,575034729569289 
1021	 0,573869794758038 
1022	 0,574535698945085 
1023	 0,574220401160423 
1024	 0,574646390700614 
1025	 0,575733245236788 
1026	 0,574375438407595 
1027	 0,57484486783671 
1028	 0,579285668506237 
1029	 0,581773355219276 
1030	 0,58195282181295 
1031	 0,580409125694976 
1032	 0,578428359432646 
1033	 0,577869399522367 
1034	 0,581573585055411 
1035	 0,58490527448531 
1036	 0,585593631462123 
1037	 0,580750808101474 
1038	 0,579145282637186 
1039	 0,58259999763647 
1040	 0,576975341927431 
1041	 0,572685967843067 
1042	 0,577993441595705 
1043	 0,581405855564664 
1044	 0,581851442869776 
1045	 0,580332056388195 
1046	 0,584909156187878 
1047	 0,591774887664908 
1048	 0,586911522641603 
1049	 0,586465203973904 
1050	 0,592815389389134 
1051	 0,595621012221853 
1052	 0,593150279800252 
1053	 0,586838322824147 
1054	 0,590384271113396 
1055	 0,591650940284067 
1056	 0,582013693136508 
1057	 0,585715904056113 
1058	 0,594275871647609 
1059	 0,591257751684158 
1060	 0,597726985857839 
1061	 0,606854602808054 
1062	 0,593929882308849 
1063	 0,585945605252277 
1064	 0,588990661267719 
1065	 0,592728904411515 
1066	 0,595913719037408 
1067	 0,596889354638294 
1068	 0,592637032653957 
1069	 0,590258316193775 
1070	 0,594821059966424 
1071	 0,599753231459761 
1072	 0,596271431114431 
1073	 0,577808432614385 
1074	 0,581372469861597 
1075	 0,594546945759845 
