Wavelength	SCORFF200216.asd
325	 0,342963273105951 
326	 0,578809596421673 
327	 0,614681418359302 
328	 0,418737064437857 
329	 0,458178378448421 
330	 0,526723857149504 
331	 0,464098408031462 
332	 0,334994566205999 
333	 0,250354813033536 
334	 0,344743668414593 
335	 0,404802108004106 
336	 0,359638375690288 
337	 0,368922015367418 
338	 0,37383309268476 
339	 0,312098926234195 
340	 0,298323523976059 
341	 0,313994987515811 
342	 0,281854468239931 
343	 0,284557555828951 
344	 0,32163751121941 
345	 0,293655750363372 
346	 0,247554789942694 
347	 0,235910625845405 
348	 0,267141939715918 
349	 0,31072996896195 
350	 0,301456464281726 
351	 0,292276655759901 
352	 0,303264002683032 
353	 0,31282701808886 
354	 0,313942586961796 
355	 0,298506573428766 
356	 0,299134190947019 
357	 0,308868406496081 
358	 0,287126258496985 
359	 0,27012578193807 
360	 0,269841046034672 
361	 0,253984457160914 
362	 0,252460054441441 
363	 0,309672363060208 
364	 0,339384680332559 
365	 0,33386115019015 
366	 0,326924038898521 
367	 0,320744783531931 
368	 0,316469521597546 
369	 0,308403750139817 
370	 0,300856485129713 
371	 0,304059116825267 
372	 0,307126526109085 
373	 0,309595569954934 
374	 0,323483556972513 
375	 0,333717931996268 
376	 0,330700633355768 
377	 0,325297165781772 
378	 0,319804865811113 
379	 0,313222693706926 
380	 0,309436909624244 
381	 0,311810273870412 
382	 0,329567658365193 
383	 0,339441176141746 
384	 0,3231936939215 
385	 0,312068846622885 
386	 0,314422106797205 
387	 0,337365486822059 
388	 0,348705781258111 
389	 0,335245314536315 
390	 0,302987806002446 
391	 0,284971767005488 
392	 0,320779514194196 
393	 0,328663508813129 
394	 0,306877013684293 
395	 0,305702715798389 
396	 0,309056104925718 
397	 0,309495067131726 
398	 0,311995081273429 
399	 0,316374855426887 
400	 0,323073075938393 
401	 0,314162444945537 
402	 0,295020294788324 
403	 0,298933287363964 
404	 0,312503634187201 
405	 0,324014000988521 
406	 0,321457557807259 
407	 0,314522944017802 
408	 0,327752490339121 
409	 0,329360510478215 
410	 0,315612645307671 
411	 0,313729159915516 
412	 0,315683188584484 
413	 0,312931291251905 
414	 0,307892927690916 
415	 0,304562534386115 
416	 0,311877881542614 
417	 0,318749570394846 
418	 0,319796030160655 
419	 0,314796165494478 
420	 0,309630252400858 
421	 0,31161197392282 
422	 0,313428500146924 
423	 0,314227100511432 
424	 0,317553532645035 
425	 0,319440557768521 
426	 0,31776082252925 
427	 0,315550985506248 
428	 0,31432079774848 
429	 0,31589460409667 
430	 0,316540968210613 
431	 0,315843317933482 
432	 0,3170057611369 
433	 0,320044738599215 
434	 0,324228637342999 
435	 0,319518835817392 
436	 0,310540694983528 
437	 0,31291277222201 
438	 0,316430788996256 
439	 0,317354783188852 
440	 0,319551960535066 
441	 0,320492743967768 
442	 0,316761402496313 
443	 0,316648201719292 
444	 0,320153471376212 
445	 0,32007911162093 
446	 0,320086509626426 
447	 0,321924861527217 
448	 0,320136079246859 
449	 0,317384265804353 
450	 0,319884058694529 
451	 0,322369418013894 
452	 0,322925048356077 
453	 0,320771576369544 
454	 0,31896949158099 
455	 0,320299801021806 
456	 0,322807999157429 
457	 0,324857365660374 
458	 0,323489008239022 
459	 0,321306661154067 
460	 0,319713735992605 
461	 0,319697783276437 
462	 0,319949963246169 
463	 0,318597126365372 
464	 0,318352721187845 
465	 0,319263664015522 
466	 0,318530135259801 
467	 0,320102922040292 
468	 0,325735320998612 
469	 0,32710410124183 
470	 0,324766867576458 
471	 0,321962787418988 
472	 0,320945278617912 
473	 0,322135072602799 
474	 0,32247628096709 
475	 0,322517292221971 
476	 0,322914986121687 
477	 0,322359122338661 
478	 0,321105877471505 
479	 0,320496051056422 
480	 0,319959289870664 
481	 0,319554694500734 
482	 0,321372242400549 
483	 0,32356274028105 
484	 0,323203770778047 
485	 0,322993380165587 
486	 0,323129483687355 
487	 0,320910783396731 
488	 0,321131342123761 
489	 0,326674796008631 
490	 0,327771509125348 
491	 0,325102343456285 
492	 0,323854468394459 
493	 0,322915775288962 
494	 0,322095796825225 
495	 0,320730682575359 
496	 0,321022502792492 
497	 0,325345329507073 
498	 0,326762719762507 
499	 0,324958059005236 
500	 0,324085061322007 
501	 0,324206809892389 
502	 0,325113974692655 
503	 0,324042825643762 
504	 0,322481938637879 
505	 0,323496531187633 
506	 0,326177462373383 
507	 0,328948909951204 
508	 0,326437204963826 
509	 0,323562642681927 
510	 0,324777492353301 
511	 0,325327585700172 
512	 0,324780245769213 
513	 0,32420209339897 
514	 0,324441749949966 
515	 0,325694761112478 
516	 0,326407615029305 
517	 0,326638055670675 
518	 0,326715608652372 
519	 0,326587771676263 
520	 0,326537266440451 
521	 0,327569473733059 
522	 0,328303801584097 
523	 0,327847044654854 
524	 0,327904929266745 
525	 0,328608423940384 
526	 0,329834156488891 
527	 0,330017393263878 
528	 0,328836471044936 
529	 0,327782593729709 
530	 0,32784447584918 
531	 0,329924032889606 
532	 0,329953903651904 
533	 0,328069471624562 
534	 0,327761171265311 
535	 0,328148162643551 
536	 0,32861055779762 
537	 0,328223912790644 
538	 0,327679450391804 
539	 0,328559701926272 
540	 0,328860748255032 
541	 0,328297964071985 
542	 0,328604751545116 
543	 0,32926204824434 
544	 0,329672556835106 
545	 0,32969080126077 
546	 0,329674550085057 
547	 0,330770886408583 
548	 0,331764660998584 
549	 0,332005719202415 
550	 0,331525182695271 
551	 0,331059382810973 
552	 0,331714315106263 
553	 0,332438278579021 
554	 0,332730049991578 
555	 0,331904120179385 
556	 0,331254843469992 
557	 0,331789375996852 
558	 0,331943098671559 
559	 0,331546315781104 
560	 0,330813065272872 
561	 0,330501510158583 
562	 0,330848268548213 
563	 0,331006963150329 
564	 0,330951252915001 
565	 0,330754354135848 
566	 0,331024346530669 
567	 0,33179582551328 
568	 0,332623077645449 
569	 0,333238237249976 
570	 0,333462683857939 
571	 0,333488524157377 
572	 0,333787012227875 
573	 0,335370723590579 
574	 0,336471062804028 
575	 0,336530532953246 
576	 0,336262605530511 
577	 0,336593859796122 
578	 0,338442418349828 
579	 0,339796134119059 
580	 0,340185250458411 
581	 0,339768110663256 
582	 0,339610403672659 
583	 0,340279082338402 
584	 0,340614953268734 
585	 0,340992594110739 
586	 0,342415712781077 
587	 0,343045091106785 
588	 0,342749733938328 
589	 0,343703997871917 
590	 0,34475240500247 
591	 0,344779046166618 
592	 0,345029739158589 
593	 0,345564513489135 
594	 0,345897264878341 
595	 0,346001403657129 
596	 0,345983774365117 
597	 0,346689662473424 
598	 0,34769018698774 
599	 0,348254265729757 
600	 0,347961177547931 
601	 0,34712059070247 
602	 0,3474519936987 
603	 0,3478679615493 
604	 0,347492781362567 
605	 0,346883259600643 
606	 0,346250719727089 
607	 0,345888808977272 
608	 0,345360728213278 
609	 0,344615901538749 
610	 0,344272489948168 
611	 0,344323996144939 
612	 0,344686252694096 
613	 0,34442586394103 
614	 0,343695080373771 
615	 0,343858942177053 
616	 0,344109193565297 
617	 0,343949862865913 
618	 0,343866759046791 
619	 0,343864302237126 
620	 0,343810506804901 
621	 0,343897197585038 
622	 0,344023954119343 
623	 0,343469084193454 
624	 0,342659403828075 
625	 0,34211099179548 
626	 0,342651053978448 
627	 0,343819463910416 
628	 0,343788739695881 
629	 0,343604620460882 
630	 0,343762373141039 
631	 0,343763706504692 
632	 0,343839472687601 
633	 0,344443052059292 
634	 0,344901435143584 
635	 0,345161855908124 
636	 0,345929083562393 
637	 0,346617108297469 
638	 0,346762757047841 
639	 0,347273477324618 
640	 0,34804390011882 
641	 0,348437841175882 
642	 0,348491493257195 
643	 0,348350640457274 
644	 0,348851266561672 
645	 0,349612321988097 
646	 0,350043516007951 
647	 0,349873794239057 
648	 0,349277255848542 
649	 0,349189530905445 
650	 0,348927958501982 
651	 0,348061726346914 
652	 0,347019625073867 
653	 0,346128040263281 
654	 0,345942720050684 
655	 0,345446093098949 
656	 0,344460388120176 
657	 0,344054692949099 
658	 0,343509786740013 
659	 0,342063235190771 
660	 0,340941420259877 
661	 0,340200522413923 
662	 0,339134835504534 
663	 0,338251150540265 
664	 0,337792569875812 
665	 0,337551986332848 
666	 0,337415724534485 
667	 0,337283333517473 
668	 0,336668065332556 
669	 0,335749148866382 
670	 0,335802022084042 
671	 0,335983544774383 
672	 0,335595137478469 
673	 0,334918422903391 
674	 0,334436418804672 
675	 0,335249142555162 
676	 0,335803528896157 
677	 0,335614277485705 
678	 0,335585839174952 
679	 0,335776553261074 
680	 0,336162063536506 
681	 0,33642102620472 
682	 0,336625871743772 
683	 0,337286894644712 
684	 0,337938197699557 
685	 0,338410179190846 
686	 0,339670689124889 
687	 0,341375339331991 
688	 0,342714152776821 
689	 0,343909740081583 
690	 0,345283124569491 
691	 0,347779470400836 
692	 0,351058587525424 
693	 0,35475191007704 
694	 0,358647448617451 
695	 0,362737201981136 
696	 0,36712982385235 
697	 0,372096614744927 
698	 0,377649915770034 
699	 0,383057845943794 
700	 0,388618184444111 
701	 0,394811323036936 
702	 0,400874818199064 
703	 0,406623627204037 
704	 0,412209276833625 
705	 0,417758269962604 
706	 0,42331600737147 
707	 0,428555212845149 
708	 0,433488802838822 
709	 0,438227501229793 
710	 0,442642220047071 
711	 0,446703912037481 
712	 0,450382813720588 
713	 0,453983953448333 
714	 0,457746280637187 
715	 0,460918966571478 
716	 0,463540804213153 
717	 0,466119237190173 
718	 0,46843772320265 
719	 0,470465936750662 
720	 0,472391609208139 
721	 0,474439474050896 
722	 0,476866674768981 
723	 0,478629572649533 
724	 0,479668019588823 
725	 0,480684393764559 
726	 0,481808544755466 
727	 0,483099457270146 
728	 0,484205361311745 
729	 0,485108495866617 
730	 0,485859664580509 
731	 0,486735169544851 
732	 0,487729891880382 
733	 0,488404271199935 
734	 0,488980054193071 
735	 0,489655404108058 
736	 0,490191476857811 
737	 0,490738391896185 
738	 0,49188447759214 
739	 0,492406262716708 
740	 0,492060719401118 
741	 0,492389485974473 
742	 0,492943365755712 
743	 0,493063295825897 
744	 0,493213115732736 
745	 0,493501252199624 
746	 0,493993358880042 
747	 0,494228065613905 
748	 0,494063026681551 
749	 0,494401708850845 
750	 0,495036761860706 
751	 0,49548540209115 
752	 0,495840010633726 
753	 0,496164676687471 
754	 0,49668562862061 
755	 0,497096473023211 
756	 0,49721206415482 
757	 0,497499555438157 
758	 0,498024316797707 
759	 0,498777828953829 
760	 0,499441724891248 
761	 0,499863445862124 
762	 0,499927931230474 
763	 0,500191544812135 
764	 0,501119149723379 
765	 0,501550434475038 
766	 0,501540199954728 
767	 0,501836324135877 
768	 0,502131579595186 
769	 0,502365955094302 
770	 0,50282459478243 
771	 0,503256191535742 
772	 0,503345269830509 
773	 0,503248558797049 
774	 0,50316317447087 
775	 0,503555008601713 
776	 0,503910678852965 
777	 0,503997005202343 
778	 0,504320056384937 
779	 0,504450774270577 
780	 0,503690214364681 
781	 0,503306694049529 
782	 0,503514703179512 
783	 0,50371934751796 
784	 0,503902323445671 
785	 0,504036491940537 
786	 0,50410545311932 
787	 0,504149920766199 
788	 0,504238642054669 
789	 0,504399527433631 
790	 0,50463808422017 
791	 0,504946748281931 
792	 0,505188054453132 
793	 0,505250420763655 
794	 0,505160462197919 
795	 0,505075570850155 
796	 0,505310584338597 
797	 0,505510674646085 
798	 0,505628567097832 
799	 0,50607261619611 
800	 0,506446426346215 
801	 0,50640267175908 
802	 0,506703460275368 
803	 0,507153922084541 
804	 0,506792083650273 
805	 0,506949108782181 
806	 0,507875554672858 
807	 0,508059521654132 
808	 0,507953088679118 
809	 0,508139014053538 
810	 0,508055116087078 
811	 0,507877991235518 
812	 0,508414001437427 
813	 0,508771320635023 
814	 0,508658778227707 
815	 0,508808567778841 
816	 0,50908586703288 
817	 0,509260751088445 
818	 0,509573006810019 
819	 0,509957643399004 
820	 0,510088232872818 
821	 0,510141069780715 
822	 0,510243194972932 
823	 0,510612836304953 
824	 0,511008072040939 
825	 0,511100269088974 
826	 0,511689539414018 
827	 0,512604342658031 
828	 0,512687110633607 
829	 0,512759143921372 
830	 0,513246686832005 
831	 0,513972598262188 
832	 0,514530296102671 
833	 0,514410517628362 
834	 0,514569455622252 
835	 0,515088290028275 
836	 0,515359658075304 
837	 0,515706657518514 
838	 0,516244706307988 
839	 0,516632211911992 
840	 0,51667117624317 
841	 0,516160333286641 
842	 0,515605475980448 
843	 0,515323256804508 
844	 0,515798126993709 
845	 0,516291937480875 
846	 0,516365775208381 
847	 0,516220430720822 
848	 0,515940979145396 
849	 0,515619512397045 
850	 0,51571762337255 
851	 0,516078472223581 
852	 0,515794152468425 
853	 0,515416138915042 
854	 0,515216088700478 
855	 0,514813606607757 
856	 0,514543617628791 
857	 0,514892311166837 
858	 0,515009525862554 
859	 0,514753379960917 
860	 0,514382497781148 
861	 0,514170733293508 
862	 0,514270290365535 
863	 0,514492602785014 
864	 0,514836533770485 
865	 0,515321461983359 
866	 0,515599302742647 
867	 0,515815331982172 
868	 0,516715924580781 
869	 0,517496594625261 
870	 0,517769299510232 
871	 0,517725501867976 
872	 0,517828105686697 
873	 0,518587651529894 
874	 0,519539583339584 
875	 0,520576256469665 
876	 0,521855181250633 
877	 0,522454876192672 
878	 0,522250234861017 
879	 0,522999630076798 
880	 0,524014445488859 
881	 0,524413210512241 
882	 0,524764075884567 
883	 0,525005126493025 
884	 0,524609922114464 
885	 0,52462925335151 
886	 0,525341847859448 
887	 0,525931183835578 
888	 0,526395972085298 
889	 0,526773650068947 
890	 0,527025115895929 
891	 0,527120973412616 
892	 0,527031283307631 
893	 0,526618199484675 
894	 0,526179385722905 
895	 0,527212321047998 
896	 0,527834011470562 
897	 0,526704281505118 
898	 0,526081314380363 
899	 0,526386718534424 
900	 0,527767811343505 
901	 0,527701190295093 
902	 0,526173624681087 
903	 0,526254483058585 
904	 0,526296883295218 
905	 0,525456771076916 
906	 0,525541338078453 
907	 0,526035575210754 
908	 0,525917149307343 
909	 0,525839219683148 
910	 0,525945919998452 
911	 0,526328114357381 
912	 0,526025069689366 
913	 0,524981898420241 
914	 0,525775336161217 
915	 0,526969787270371 
916	 0,526784369498982 
917	 0,526802013271013 
918	 0,527262633763051 
919	 0,528019271202131 
920	 0,528541206462674 
921	 0,528630613233681 
922	 0,528433102785111 
923	 0,528499312550013 
924	 0,529199434856456 
925	 0,529482073183839 
926	 0,529503624434826 
927	 0,529880445004644 
928	 0,529826308164243 
929	 0,529571425861817 
930	 0,530763292184018 
931	 0,531864527354908 
932	 0,532038017871971 
933	 0,532367724920723 
934	 0,532821306281931 
935	 0,533212690728176 
936	 0,533795381075687 
937	 0,534155159836965 
938	 0,53284031438355 
939	 0,532485581961838 
940	 0,533748762317962 
941	 0,534307371045305 
942	 0,533953994235869 
943	 0,532792394581795 
944	 0,532548548043464 
945	 0,533141136251504 
946	 0,533857520218675 
947	 0,533733425928899 
948	 0,532728831709306 
949	 0,531954660474073 
950	 0,531215797546683 
951	 0,530573171932211 
952	 0,531064084892235 
953	 0,531335517300067 
954	 0,529790489500027 
955	 0,529761999840268 
956	 0,531081815020065 
957	 0,53172716981212 
958	 0,530331570268825 
959	 0,527399765007331 
960	 0,527673045126606 
961	 0,528961103412143 
962	 0,529376258473854 
963	 0,529017648194599 
964	 0,528694211943444 
965	 0,529637594638926 
966	 0,529174395415379 
967	 0,527622249309617 
968	 0,528173177386982 
969	 0,528250033355759 
970	 0,527081394056186 
971	 0,526657142436408 
972	 0,526839555395434 
973	 0,527373899037601 
974	 0,528226821063226 
975	 0,529034613918138 
976	 0,529254092041882 
977	 0,529164476622116 
978	 0,528891458068232 
979	 0,528453840635015 
980	 0,528459911276777 
981	 0,52943068042319 
982	 0,532589578033141 
983	 0,53455127654495 
984	 0,532285991686681 
985	 0,532243407675909 
986	 0,533495519950807 
987	 0,531776934212367 
988	 0,53164640911985 
989	 0,533321882392295 
990	 0,532642870724348 
991	 0,532524253161155 
992	 0,534054560112345 
993	 0,53385233752243 
994	 0,534008534397629 
995	 0,536646065238813 
996	 0,537178329815658 
997	 0,536250851423261 
998	 0,536713458842192 
999	 0,538687018899549 
1000	 0,541288247380664 
1001	 0,541310343362435 
1002	 0,539727357468472 
1003	 0,537865004973554 
1004	 0,539871345340011 
1005	 0,543082802306333 
1006	 0,544403434014487 
1007	 0,543247592576923 
1008	 0,541954261377522 
1009	 0,544851374810998 
1010	 0,545214323405641 
1011	 0,542625309233287 
1012	 0,541618363474367 
1013	 0,542372687107507 
1014	 0,544631409195628 
1015	 0,546329941323273 
1016	 0,546481568638753 
1017	 0,544620253807602 
1018	 0,542983723363121 
1019	 0,542917872472315 
1020	 0,545685912323735 
1021	 0,547318271832559 
1022	 0,547103096311073 
1023	 0,54627287490198 
1024	 0,544835790175616 
1025	 0,543362271349375 
1026	 0,543606809548942 
1027	 0,544700248917043 
1028	 0,545917545160498 
1029	 0,546630518294851 
1030	 0,548390957089044 
1031	 0,552569276026519 
1032	 0,550956856828694 
1033	 0,547169705127256 
1034	 0,551608259530017 
1035	 0,555229903276455 
1036	 0,555671293026519 
1037	 0,554268004174242 
1038	 0,552445761479201 
1039	 0,550418155030854 
1040	 0,54385602373927 
1041	 0,541749974807917 
1042	 0,54998760596199 
1043	 0,55190930026231 
1044	 0,549626562860247 
1045	 0,54931333174285 
1046	 0,550634305307173 
1047	 0,552414407645161 
1048	 0,551181824084082 
1049	 0,555104060486427 
1050	 0,563176004896334 
1051	 0,560390220163015 
1052	 0,557322720459974 
1053	 0,55837172292754 
1054	 0,555818922687549 
1055	 0,553139895889417 
1056	 0,553959312592344 
1057	 0,559546256337317 
1058	 0,565116291096391 
1059	 0,563647804472487 
1060	 0,567213896036437 
1061	 0,570118498007611 
1062	 0,553488571044473 
1063	 0,548587377057017 
1064	 0,55951788584577 
1065	 0,565021031912268 
1066	 0,559567472359388 
1067	 0,544634377748699 
1068	 0,540639580467185 
1069	 0,549811464860899 
1070	 0,567575977440142 
1071	 0,563168988276729 
1072	 0,552225716875619 
1073	 0,556288945615959 
1074	 0,568018476181083 
1075	 0,572446041025394 
