Wavelength	SCORFF200723.asd
325	 0,33952068594086 
326	 0,37920923553929 
327	 0,285960203500131 
328	 0,108198633608254 
329	 0,264076814429917 
330	 0,37302708752201 
331	 0,176038800306583 
332	 0,129361610828409 
333	 0,233502773227093 
334	 0,350826546171297 
335	 0,450097090829916 
336	 0,457802064359441 
337	 0,417222797850493 
338	 0,311253571435865 
339	 0,163681777749539 
340	 0,149852148817901 
341	 0,21704934271881 
342	 0,226592513212024 
343	 0,266285752763216 
344	 0,323790676745212 
345	 0,298001453488372 
346	 0,265618483841874 
347	 0,30071185856319 
348	 0,29347012595162 
349	 0,260294746522589 
350	 0,28131537802926 
351	 0,308806498928128 
352	 0,310932947810309 
353	 0,253555001539363 
354	 0,211476485052849 
355	 0,276284699629191 
356	 0,309498178737182 
357	 0,291048172295181 
358	 0,276152107430828 
359	 0,269450270509956 
360	 0,269340196061002 
361	 0,234175730854116 
362	 0,216627323586924 
363	 0,29522068809416 
364	 0,32320781751709 
365	 0,291859101788345 
366	 0,278093346658535 
367	 0,281141124649147 
368	 0,295728192938277 
369	 0,287337177023276 
370	 0,26373644544461 
371	 0,250118289078857 
372	 0,243093509169913 
373	 0,246047350891455 
374	 0,276170846800656 
375	 0,297590892217213 
376	 0,28829177418637 
377	 0,284632141511184 
378	 0,288524773415057 
379	 0,29128576317044 
380	 0,288471452439189 
381	 0,282613159928452 
382	 0,29634509915238 
383	 0,309714936064083 
384	 0,305399915610986 
385	 0,29822694943924 
386	 0,294150069130451 
387	 0,302504876920531 
388	 0,299502312885766 
389	 0,28119731439151 
390	 0,276906182459135 
391	 0,285207435791283 
392	 0,301144458256277 
393	 0,289580166719909 
394	 0,262076648815757 
395	 0,278846035862532 
396	 0,292808489239728 
397	 0,283730751080407 
398	 0,282533448051342 
399	 0,285688193807335 
400	 0,282754606146903 
401	 0,282920709360175 
402	 0,285983868545581 
403	 0,282418832593077 
404	 0,28020268268554 
405	 0,284457633871867 
406	 0,288761749169171 
407	 0,292747447462375 
408	 0,297966546464242 
409	 0,298563022900991 
410	 0,294839186765896 
411	 0,29704501295699 
412	 0,2962789510884 
413	 0,284947366928059 
414	 0,285791736406159 
415	 0,294353209569127 
416	 0,288529800502622 
417	 0,286067669424577 
418	 0,291983709404932 
419	 0,290691787568081 
420	 0,285965848754541 
421	 0,284189418869181 
422	 0,287819579870853 
423	 0,294543905731752 
424	 0,29559002307502 
425	 0,295075843441884 
426	 0,295235194389723 
427	 0,292739024556612 
428	 0,289686248856415 
429	 0,29008701012455 
430	 0,292683606619901 
431	 0,295935599279312 
432	 0,295796417230404 
433	 0,292913805680063 
434	 0,288444896365643 
435	 0,288110477056683 
436	 0,290860751199608 
437	 0,291240888913742 
438	 0,292045799610225 
439	 0,29380664652568 
440	 0,293655354405021 
441	 0,292525235241374 
442	 0,291888596122504 
443	 0,292021169983255 
444	 0,292933242787676 
445	 0,294522075336395 
446	 0,294931956484002 
447	 0,293275686745537 
448	 0,29234192323526 
449	 0,292901465582519 
450	 0,29559169472439 
451	 0,2981299460782 
452	 0,299483021366065 
453	 0,299132685782703 
454	 0,298409535578893 
455	 0,298537342055051 
456	 0,298579119082555 
457	 0,298125633834581 
458	 0,296229766042493 
459	 0,29575485092065 
460	 0,297723602851404 
461	 0,30004961441037 
462	 0,301730075672066 
463	 0,301839792610331 
464	 0,299532770711258 
465	 0,295975278748924 
466	 0,295487378436031 
467	 0,295795720153552 
468	 0,295667896158521 
469	 0,298651701298796 
470	 0,302784985181141 
471	 0,30365617099382 
472	 0,30207896256886 
473	 0,299345664445816 
474	 0,300325628790851 
475	 0,301489235294317 
476	 0,299313502493184 
477	 0,299203320297568 
478	 0,300780829642875 
479	 0,300163825732797 
480	 0,298293614466592 
481	 0,296294415115955 
482	 0,298783769654928 
483	 0,302441574473057 
484	 0,30178433859131 
485	 0,301667092986239 
486	 0,302358631342743 
487	 0,299570443775518 
488	 0,2980066608282 
489	 0,300838121377965 
490	 0,301291874401448 
491	 0,299935332431468 
492	 0,300701576152256 
493	 0,301141028466232 
494	 0,300706850569436 
495	 0,301022913960765 
496	 0,301144634204883 
497	 0,299929031086807 
498	 0,299715981233083 
499	 0,300616948737202 
500	 0,301319391225864 
501	 0,301670664028943 
502	 0,301633962147366 
503	 0,301799573939088 
504	 0,302410894696316 
505	 0,303783349700637 
506	 0,304786020890807 
507	 0,30499050948434 
508	 0,304261763071674 
509	 0,30370215494624 
510	 0,304258656645199 
511	 0,304862183407298 
512	 0,30523936354724 
513	 0,305287621322578 
514	 0,305270161513535 
515	 0,305195181680097 
516	 0,304219147829953 
517	 0,303293884188265 
518	 0,303808716381862 
519	 0,304389028724235 
520	 0,304915698230678 
521	 0,306478596020136 
522	 0,307644743791182 
523	 0,307392362343784 
524	 0,306333474877499 
525	 0,305554949459371 
526	 0,307356564612394 
527	 0,308253872276822 
528	 0,307343139725079 
529	 0,306971634011771 
530	 0,307154434990611 
531	 0,307683737679771 
532	 0,307489078133644 
533	 0,306745688737878 
534	 0,306831271931588 
535	 0,307075418863471 
536	 0,30709584218763 
537	 0,307174602142866 
538	 0,307236198494851 
539	 0,307085297774842 
540	 0,30690453929221 
541	 0,306859221581461 
542	 0,307395955326011 
543	 0,307882434811193 
544	 0,307725189564546 
545	 0,307935126262749 
546	 0,308570276617523 
547	 0,309294171683754 
548	 0,309543124562235 
549	 0,309187479839201 
550	 0,309509794597326 
551	 0,310293979984524 
552	 0,311007179508694 
553	 0,31110172690244 
554	 0,310671603901429 
555	 0,310976963488691 
556	 0,310922646246034 
557	 0,309689244786099 
558	 0,309074896973428 
559	 0,309144642771112 
560	 0,309205972798726 
561	 0,309272330731117 
562	 0,309298566288762 
563	 0,309299622889376 
564	 0,309150017215152 
565	 0,308680630570466 
566	 0,30882445440769 
567	 0,309570010805892 
568	 0,309874134342169 
569	 0,310539891558691 
570	 0,311961841500701 
571	 0,312192736910672 
572	 0,311893710747012 
573	 0,313136219439713 
574	 0,31459824396475 
575	 0,315779350940438 
576	 0,316602273819841 
577	 0,317294623558183 
578	 0,318128271603914 
579	 0,318879419708627 
580	 0,319566119327342 
581	 0,320440660255234 
582	 0,321098504322043 
583	 0,321341007349993 
584	 0,321451602338388 
585	 0,321942785766512 
586	 0,323702488927269 
587	 0,324606171602253 
588	 0,324416263244312 
589	 0,325275898108844 
590	 0,326556917006434 
591	 0,327561107265625 
592	 0,32815814831106 
593	 0,328341138277178 
594	 0,328113594931331 
595	 0,328255407024353 
596	 0,329107349338811 
597	 0,330104409273159 
598	 0,330835590134608 
599	 0,330830047336041 
600	 0,330457278898286 
601	 0,32981070979785 
602	 0,328670754599363 
603	 0,32785172266347 
604	 0,327950194482209 
605	 0,328094325688917 
606	 0,328001055157188 
607	 0,327399114075386 
608	 0,326801727693919 
609	 0,326390073884512 
610	 0,325777876618339 
611	 0,325488220535242 
612	 0,326175559361067 
613	 0,325968659642658 
614	 0,324797215256423 
615	 0,323991359117903 
616	 0,323759739379697 
617	 0,324152673177833 
618	 0,324129374005141 
619	 0,32396059637675 
620	 0,32457148702526 
621	 0,324802934989192 
622	 0,324418849713026 
623	 0,324258971685121 
624	 0,32422087944722 
625	 0,324156328595247 
626	 0,32431169759832 
627	 0,324620660547968 
628	 0,324765622220405 
629	 0,324870239328358 
630	 0,325009421977743 
631	 0,325263663308435 
632	 0,325571725150585 
633	 0,325811837048707 
634	 0,326099333210663 
635	 0,326577400750245 
636	 0,327679446198394 
637	 0,328739554289655 
638	 0,329233365226786 
639	 0,330205845486805 
640	 0,331373194414554 
641	 0,331540590533203 
642	 0,331655355175543 
643	 0,33209783498269 
644	 0,332677860961072 
645	 0,333196902293096 
646	 0,333425102997088 
647	 0,333344773218557 
648	 0,333026694740661 
649	 0,332724913734535 
650	 0,33239697560276 
651	 0,33196640840168 
652	 0,330998002793872 
653	 0,329750630310425 
654	 0,328846181990528 
655	 0,328143664541601 
656	 0,327523580664953 
657	 0,326684735646645 
658	 0,325394029435334 
659	 0,323491928812175 
660	 0,322374125881799 
661	 0,321914859197033 
662	 0,320782971483242 
663	 0,319677122366157 
664	 0,318938496383442 
665	 0,31840142062468 
666	 0,318024032664577 
667	 0,317798094832987 
668	 0,317080403665312 
669	 0,31596270493438 
670	 0,315521341473141 
671	 0,315455304346116 
672	 0,315478555969759 
673	 0,315490739719261 
674	 0,31538747022039 
675	 0,314955823984274 
676	 0,314813984150829 
677	 0,315043061085996 
678	 0,314516936699287 
679	 0,314266099173791 
680	 0,315575044531432 
681	 0,316410514666799 
682	 0,316589983033135 
683	 0,317186009337594 
684	 0,317945205128383 
685	 0,318765826544566 
686	 0,319854142167062 
687	 0,32140321759862 
688	 0,323707622809239 
689	 0,326113899217515 
690	 0,328603544116413 
691	 0,332005185107173 
692	 0,336038457648986 
693	 0,340436850497895 
694	 0,345550541500659 
695	 0,351170594515246 
696	 0,356551407034095 
697	 0,362810547321676 
698	 0,370184050272537 
699	 0,377120472531344 
700	 0,383902532797423 
701	 0,391102663446698 
702	 0,398237617775389 
703	 0,405269338532699 
704	 0,412597256843417 
705	 0,41959056519574 
706	 0,425838302932253 
707	 0,431603910908134 
708	 0,437106626951512 
709	 0,442647618749247 
710	 0,447881498793787 
711	 0,45270224756383 
712	 0,457140797306692 
713	 0,461212493846437 
714	 0,464950959603596 
715	 0,46868339410307 
716	 0,472265927468434 
717	 0,475140749776589 
718	 0,477842677050978 
719	 0,480530169127429 
720	 0,482622563299698 
721	 0,484622711662618 
722	 0,487226536580122 
723	 0,48924017757557 
724	 0,490578656389163 
725	 0,491974391605698 
726	 0,493384867393574 
727	 0,49477410398978 
728	 0,495932784893757 
729	 0,497033321519955 
730	 0,498476207454744 
731	 0,499422574994354 
732	 0,499804536810665 
733	 0,500500538310519 
734	 0,501383366059517 
735	 0,502264865773769 
736	 0,502435824970405 
737	 0,502433423690668 
738	 0,504020240006128 
739	 0,505092364588953 
740	 0,505040819251886 
741	 0,505380751769315 
742	 0,505909037901519 
743	 0,506250381305805 
744	 0,506422094538474 
745	 0,506520411392718 
746	 0,506825065042038 
747	 0,507214411225658 
748	 0,507594392277891 
749	 0,507790394421284 
750	 0,507900034160071 
751	 0,508103506609501 
752	 0,508356847095767 
753	 0,508720335171738 
754	 0,509471086665933 
755	 0,510078142677228 
756	 0,510193609836312 
757	 0,510423896191788 
758	 0,510886475962162 
759	 0,511615071254776 
760	 0,512353533584094 
761	 0,512946161176297 
762	 0,513196974918777 
763	 0,513439953496101 
764	 0,513991546995264 
765	 0,514606114240313 
766	 0,515199866096661 
767	 0,515736228401964 
768	 0,51597899960344 
769	 0,515969135594821 
770	 0,516556145044829 
771	 0,517172271990738 
772	 0,517083927863953 
773	 0,517221280083852 
774	 0,517645811553143 
775	 0,517888236187606 
776	 0,518006082080267 
777	 0,518053018674397 
778	 0,51828440906051 
779	 0,5184654866863 
780	 0,518215552818642 
781	 0,517966138747458 
782	 0,517852968750256 
783	 0,517843923325247 
784	 0,518038796165863 
785	 0,518451859333249 
786	 0,518653134046178 
787	 0,518736502530584 
788	 0,519007515713858 
789	 0,519029290698454 
790	 0,518827790326088 
791	 0,519041132748125 
792	 0,519357035544087 
793	 0,519530846546868 
794	 0,519861155050144 
795	 0,520360120122773 
796	 0,520979657267642 
797	 0,521473492076471 
798	 0,521789751924684 
799	 0,52221170109465 
800	 0,522527783868495 
801	 0,522550820115597 
802	 0,522654825697309 
803	 0,522856623865535 
804	 0,522936737885109 
805	 0,523350662061297 
806	 0,524159094525878 
807	 0,524777870655473 
808	 0,525041569699164 
809	 0,524855178880235 
810	 0,524788405791384 
811	 0,525020109876095 
812	 0,525741235688118 
813	 0,525943637400931 
814	 0,525357102528468 
815	 0,52525801286396 
816	 0,525506196471361 
817	 0,525797218079848 
818	 0,526402864233833 
819	 0,527084550890128 
820	 0,527022689918389 
821	 0,526927304233285 
822	 0,527124052280323 
823	 0,527312646759093 
824	 0,52745434768694 
825	 0,52753789274255 
826	 0,52805710408999 
827	 0,528840918772982 
828	 0,528943506171848 
829	 0,529183811859649 
830	 0,529884401681932 
831	 0,53016117351113 
832	 0,530270581536789 
833	 0,530685068804187 
834	 0,531099204366835 
835	 0,531544608200437 
836	 0,532421165791968 
837	 0,532989805278584 
838	 0,532931808788096 
839	 0,533153994020442 
840	 0,533523688542344 
841	 0,533709923467364 
842	 0,533353142630957 
843	 0,532672381735282 
844	 0,532608632786067 
845	 0,532999157484379 
846	 0,533641504902033 
847	 0,533812242823701 
848	 0,533681075628141 
849	 0,533620722493401 
850	 0,533923158321734 
851	 0,534258442345175 
852	 0,533246006808601 
853	 0,532322567172743 
854	 0,532261601571723 
855	 0,532428766066487 
856	 0,53265920576584 
857	 0,532823172311473 
858	 0,532804136607612 
859	 0,532501870960523 
860	 0,531613914710071 
861	 0,531226329281973 
862	 0,531819472879152 
863	 0,532335915904701 
864	 0,532766311894598 
865	 0,533251217677476 
866	 0,533427796282488 
867	 0,533616542005622 
868	 0,535157993903409 
869	 0,536042070964718 
870	 0,535559554244492 
871	 0,535833937853267 
872	 0,536506164391229 
873	 0,536906718387877 
874	 0,537354505282329 
875	 0,537908517476504 
876	 0,538564297619597 
877	 0,539316770358964 
878	 0,540068408819504 
879	 0,540334555978439 
880	 0,54061097560701 
881	 0,541427082048854 
882	 0,541834757147877 
883	 0,541914297045969 
884	 0,542351457296827 
885	 0,542988607674288 
886	 0,543674317121553 
887	 0,543917522684206 
888	 0,543898344514056 
889	 0,543872338815458 
890	 0,54450127170099 
891	 0,545309549749602 
892	 0,544993744285412 
893	 0,544674050248553 
894	 0,544689427588952 
895	 0,544833536030444 
896	 0,544787831036288 
897	 0,544290838747208 
898	 0,543162231678568 
899	 0,542440318302387 
900	 0,543991088937197 
901	 0,544569541614091 
902	 0,543768463171448 
903	 0,543996661960978 
904	 0,544103473952404 
905	 0,54345765320284 
906	 0,54301060611662 
907	 0,542645279145595 
908	 0,542036626867218 
909	 0,542029754521144 
910	 0,54262995410951 
911	 0,543215700284848 
912	 0,543712300546104 
913	 0,543863037818348 
914	 0,542510747163959 
915	 0,541532123425696 
916	 0,542958343662043 
917	 0,543742463323762 
918	 0,543750022459934 
919	 0,544333779735697 
920	 0,544762074860203 
921	 0,544791850520059 
922	 0,544292437619941 
923	 0,544478069816407 
924	 0,546134252969698 
925	 0,546541047126707 
926	 0,546212000256775 
927	 0,546899622673771 
928	 0,547333235861857 
929	 0,547293727343974 
930	 0,547208391355808 
931	 0,547461179805012 
932	 0,548173738780649 
933	 0,548471762957831 
934	 0,548559311552518 
935	 0,548827326778972 
936	 0,549117903434317 
937	 0,54926128850999 
938	 0,548785681086338 
939	 0,548824848843479 
940	 0,549531156427756 
941	 0,549206852371732 
942	 0,54876278970124 
943	 0,549019187337658 
944	 0,548807908913848 
945	 0,548562706434038 
946	 0,549480485354657 
947	 0,549128006613217 
948	 0,547518179161687 
949	 0,547409889936778 
950	 0,547298688086089 
951	 0,546494807761613 
952	 0,546546335485867 
953	 0,546440204017889 
954	 0,544891176329644 
955	 0,544431330673111 
956	 0,544839462226611 
957	 0,544245771544849 
958	 0,542603240449063 
959	 0,540604208422423 
960	 0,541451585653094 
961	 0,542857821086993 
962	 0,542999357005118 
963	 0,542979533984454 
964	 0,542865682588518 
965	 0,542583528035168 
966	 0,540889700215809 
967	 0,538884688547726 
968	 0,541076952882368 
969	 0,541540450122728 
970	 0,538788564678064 
971	 0,539687518180811 
972	 0,541122020529102 
973	 0,540110669259211 
974	 0,540257262475836 
975	 0,541374895991602 
976	 0,542097225359198 
977	 0,542640702635899 
978	 0,542624382575085 
979	 0,540380144548377 
980	 0,540173345066464 
981	 0,543537585606307 
982	 0,546027451773739 
983	 0,54652762076751 
984	 0,544730895423522 
985	 0,545772539014262 
986	 0,548515266354269 
987	 0,548831633988891 
988	 0,548051200645384 
989	 0,546809044428992 
990	 0,545949280944023 
991	 0,54637586357497 
992	 0,548162899831494 
993	 0,548699993841632 
994	 0,548525656912764 
995	 0,548568020829548 
996	 0,550064140452228 
997	 0,552005561230455 
998	 0,551932879327671 
999	 0,55252690509068 
1000	 0,554340112865689 
1001	 0,556733600308241 
1002	 0,557363420894179 
1003	 0,555588896322076 
1004	 0,555032544345439 
1005	 0,555883996461023 
1006	 0,557911312885679 
1007	 0,560226399948386 
1008	 0,561803085084881 
1009	 0,561314946519572 
1010	 0,560475966890767 
1011	 0,559716958539489 
1012	 0,558457605534844 
1013	 0,558259462121649 
1014	 0,559645046453497 
1015	 0,561625786884201 
1016	 0,561936697287604 
1017	 0,559501745213224 
1018	 0,561938021120748 
1019	 0,566273919028994 
1020	 0,566507668549713 
1021	 0,564844382692312 
1022	 0,563223861907293 
1023	 0,565711750845061 
1024	 0,566624521664069 
1025	 0,565078525472685 
1026	 0,566628372145137 
1027	 0,568319951323034 
1028	 0,568307486814016 
1029	 0,568634944028866 
1030	 0,569663698274275 
1031	 0,571332312054082 
1032	 0,569553635217588 
1033	 0,567627287921004 
1034	 0,573642376513761 
1035	 0,578504301271502 
1036	 0,578599361935171 
1037	 0,570477463493846 
1038	 0,568547837297945 
1039	 0,576140839484564 
1040	 0,572713683014209 
1041	 0,566567709942548 
1042	 0,565575834979423 
1043	 0,566168771525598 
1044	 0,56871458823104 
1045	 0,573858309235489 
1046	 0,57682344280751 
1047	 0,576735751787257 
1048	 0,57372358470544 
1049	 0,579761405560966 
1050	 0,59315603471164 
1051	 0,590693749053741 
1052	 0,584155282769293 
1053	 0,580054446469665 
1054	 0,578764820560155 
1055	 0,576516846745709 
1056	 0,571480262109492 
1057	 0,57666008229609 
1058	 0,58619733064615 
1059	 0,588797143621837 
1060	 0,589577584891452 
1061	 0,588426264969646 
1062	 0,582995074814745 
1063	 0,578175885520762 
1064	 0,575218863748081 
1065	 0,571500555980554 
1066	 0,571495374198097 
1067	 0,574099279959005 
1068	 0,561498168366136 
1069	 0,558515553898397 
1070	 0,580128310067584 
1071	 0,583076177680411 
1072	 0,57524981698812 
1073	 0,5720747110096 
1074	 0,5859554796432 
1075	 0,603327416981017 
