Wavelength	SCORFF200224.asd
325	 0,194824667818967 
326	 0,36880527599878 
327	 0,359464734419337 
328	 0,146936660692596 
329	 0,136428543661643 
330	 0,176121544877713 
331	 0,145285033987963 
332	 0,141929300043377 
333	 0,16403311869075 
334	 0,194240674625311 
335	 0,168551458139855 
336	 0,102907161650331 
337	 8,32302773042771E-02 
338	 8,34516153407849E-02 
339	 8,95704936781244E-02 
340	 0,106479506973174 
341	 0,121653837653819 
342	 0,114585737893628 
343	 0,134187280019415 
344	 0,169596629911458 
345	 0,136047647165698 
346	 8,82722220801217E-02 
347	 0,08547907943817 
348	 0,115540720619894 
349	 0,15294815496034 
350	 0,150878531809552 
351	 0,162547218774681 
352	 0,19095193091193 
353	 0,149389154708636 
354	 8,96599438099488E-02 
355	 7,54325449399885E-02 
356	 8,72746116341437E-02 
357	 0,108290811305784 
358	 0,11517792450197 
359	 0,103173682172484 
360	 6,96923236312297E-02 
361	 1,84953860282319E-02 
362	-1,4362448021039E-03 
363	 7,32543005885016E-02 
364	 0,101566416005926 
365	 7,64384190349836E-02 
366	 8,21399720937064E-02 
367	 0,088731314086451 
368	 7,69551550015077E-02 
369	 3,96459331116602E-02 
370	 1,03134761411405E-02 
371	 5,66673973127342E-02 
372	 8,83670007052826E-02 
373	 8,30076043976859E-02 
374	 6,26785884116437E-02 
375	 4,28569083192795E-02 
376	 3,48727157456077E-02 
377	 6,11022712628367E-02 
378	 9,42878365815166E-02 
379	 7,54905678303193E-02 
380	 5,43186593449831E-02 
381	 5,12574536103386E-02 
382	 8,30475275006633E-02 
383	 0,100239458486858 
384	 6,33581845643587E-02 
385	 4,24468621382294E-02 
386	 4,67165910208024E-02 
387	 6,39088783294973E-02 
388	 7,56421570904362E-02 
389	 7,27597949980348E-02 
390	 5,64375366815057E-02 
391	 5,06224743584169E-02 
392	 8,32337664805639E-02 
393	 7,77365469378122E-02 
394	 4,02446778995474E-02 
395	 4,01205979288285E-02 
396	 0,04810702998872 
397	 0,050055030602726 
398	 5,50778769784139E-02 
399	 0,058485260634872 
400	 0,053046086429631 
401	 4,65007732883016E-02 
402	 4,07766018291404E-02 
403	 3,15140161031138E-02 
404	 3,02512206434054E-02 
405	 4,24425784860659E-02 
406	 4,19286256561518E-02 
407	 3,71302077108653E-02 
408	 0,05399635494819 
409	 5,99178962919996E-02 
410	 5,02818664251888E-02 
411	 5,13191344548856E-02 
412	 5,15259111036574E-02 
413	 0,040139131189298 
414	 3,94744557447911E-02 
415	 4,63517475473317E-02 
416	 4,24570134342714E-02 
417	 4,01438650944448E-02 
418	 4,27151959073375E-02 
419	 3,78457136121147E-02 
420	 3,30475277812488E-02 
421	 3,90079755202423E-02 
422	 0,043656753168632 
423	 4,51132683352133E-02 
424	 4,79286845117025E-02 
425	 4,80037557321126E-02 
426	 4,35811027205724E-02 
427	 4,12092026994623E-02 
428	 4,14873310966852E-02 
429	 4,38920021244542E-02 
430	 4,38295129934585E-02 
431	 4,16536004914924E-02 
432	 4,64152237588665E-02 
433	 0,048788898885478 
434	 4,11950621226468E-02 
435	 0,040884579274733 
436	 4,58396971408987E-02 
437	 4,28421259770159E-02 
438	 4,03429711119106E-02 
439	 4,12457774856867E-02 
440	 4,19196623511925E-02 
441	 4,20665736849886E-02 
442	 4,17305588531989E-02 
443	 0,040665166850001 
444	 4,01088031104892E-02 
445	 4,46109501633965E-02 
446	 4,70953819594303E-02 
447	 0,043789123021736 
448	 4,27360689926607E-02 
449	 4,36997533826111E-02 
450	 4,39682557139332E-02 
451	 4,50242430303205E-02 
452	 4,70677820366106E-02 
453	 4,97512863204202E-02 
454	 5,05188230729614E-02 
455	 4,72259604062231E-02 
456	 0,042840780431291 
457	 0,039743554364719 
458	 4,23785809456045E-02 
459	 4,38247021247853E-02 
460	 4,19584753282196E-02 
461	 4,39126625403728E-02 
462	 4,71856806255199E-02 
463	 4,76845440477132E-02 
464	 4,56780982614808E-02 
465	 4,26446593031583E-02 
466	 4,32617262025478E-02 
467	 4,50397797516191E-02 
468	 4,61010232593958E-02 
469	 4,62001810761328E-02 
470	 0,045067639700572 
471	 0,041990069326707 
472	 4,10516927412007E-02 
473	 4,31745955024953E-02 
474	 4,55001525375443E-02 
475	 4,68513706409948E-02 
476	 4,63046351109037E-02 
477	 4,50446530270414E-02 
478	 4,39626685141718E-02 
479	 4,49152953043141E-02 
480	 0,044160888444737 
481	 4,09543322099819E-02 
482	 4,30802380183923E-02 
483	 4,71258210685307E-02 
484	 0,047012763584503 
485	 4,63873260083244E-02 
486	 4,59695085607734E-02 
487	 4,45885230777476E-02 
488	 4,41994825408391E-02 
489	 4,60669554649846E-02 
490	 4,71160276671908E-02 
491	 4,70538098436089E-02 
492	 0,046475449745617 
493	 4,55591546521628E-02 
494	 4,47022110618455E-02 
495	 4,50668865790477E-02 
496	 4,59360570347241E-02 
497	 4,64047743997049E-02 
498	 4,66734661494507E-02 
499	 4,67153276438195E-02 
500	 4,62778033088394E-02 
501	 4,64167527395986E-02 
502	 0,047443535820589 
503	 0,046470966118687 
504	 4,52392872092482E-02 
505	 4,74565527291159E-02 
506	 4,91012521594855E-02 
507	 0,048956349008837 
508	 4,73385397986998E-02 
509	 4,62370436151657E-02 
510	 4,73204421610486E-02 
511	 4,83147648685249E-02 
512	 4,87491663214478E-02 
513	 4,86303981880931E-02 
514	 4,86341290490161E-02 
515	 4,89060284211655E-02 
516	 4,81049131664506E-02 
517	 4,73475787163013E-02 
518	 0,048328883912514 
519	 0,049174912352512 
520	 4,96861248872452E-02 
521	 5,14347160582825E-02 
522	 5,15915946888569E-02 
523	 0,048561917772515 
524	 4,82133270009086E-02 
525	 5,00116803393307E-02 
526	 5,06482509539671E-02 
527	 5,09535953671012E-02 
528	 5,11079997078272E-02 
529	 5,12894983426558E-02 
530	 5,11712277166065E-02 
531	 5,03783110944482E-02 
532	 4,96608231827186E-02 
533	 4,95025774448446E-02 
534	 5,07992923731523E-02 
535	 5,19100238520237E-02 
536	 5,18695865869511E-02 
537	 5,14949051026178E-02 
538	 0,051130689216215 
539	 5,11539913222431E-02 
540	 5,13052215065683E-02 
541	 5,15409676048141E-02 
542	 5,21728799107825E-02 
543	 5,23012807157237E-02 
544	 0,051162036129252 
545	 5,15529566856816E-02 
546	 5,30876348887672E-02 
547	 5,30559298625329E-02 
548	 5,27934097849102E-02 
549	 5,29675013993004E-02 
550	 0,053619740340447 
551	 5,43285634906935E-02 
552	 5,44489574476739E-02 
553	 5,43330230242549E-02 
554	 5,41377444207725E-02 
555	 5,40576696882727E-02 
556	 5,39796554042065E-02 
557	 0,053832947994377 
558	 5,40305509320534E-02 
559	 5,44128602820562E-02 
560	 0,054380478354857 
561	 5,45189402201117E-02 
562	 5,49367453124223E-02 
563	 5,48436388150257E-02 
564	 5,45181819466414E-02 
565	 5,44107612065689E-02 
566	 5,46816058265006E-02 
567	 0,055286441449127 
568	 5,59187677490586E-02 
569	 5,64046729852227E-02 
570	 5,65882262849493E-02 
571	 5,62330151949791E-02 
572	 5,58492266910458E-02 
573	 5,65959128121346E-02 
574	 5,72748105222203E-02 
575	 5,75552341052612E-02 
576	 0,058230479227795 
577	 5,86047211799826E-02 
578	 5,78954859384635E-02 
579	 5,79494791382478E-02 
580	 5,88819209615293E-02 
581	 5,97770563875482E-02 
582	 5,98196317685671E-02 
583	 5,87572171288058E-02 
584	 0,058733042431568 
585	 5,95155291028737E-02 
586	 6,02355670475167E-02 
587	 0,060143900508673 
588	 5,94670503210277E-02 
589	 6,05093802389345E-02 
590	 6,16453922463975E-02 
591	 6,13365560818454E-02 
592	 6,14591254737735E-02 
593	 6,19368439459662E-02 
594	 6,14705502770955E-02 
595	 6,12968418869258E-02 
596	 6,18613582008612E-02 
597	 6,20282941550602E-02 
598	 6,18606974047237E-02 
599	 6,16306753978947E-02 
600	 6,16534583254599E-02 
601	 6,18703131268505E-02 
602	 0,061577714156037 
603	 6,13981905153252E-02 
604	 6,18139599001097E-02 
605	 6,24503246395522E-02 
606	 6,28493957151958E-02 
607	 6,20477315692872E-02 
608	 0,061414829023377 
609	 6,13903048211966E-02 
610	 6,10679961283703E-02 
611	 6,06972031693591E-02 
612	 6,06667401989218E-02 
613	 6,05088959439596E-02 
614	 6,03023084199778E-02 
615	 6,06982694607931E-02 
616	 6,11401971057094E-02 
617	 6,12400735439086E-02 
618	 6,09721484838685E-02 
619	 6,06719949216954E-02 
620	 6,10144091721908E-02 
621	 6,12521826654069E-02 
622	 6,12120346089388E-02 
623	 6,13410241543067E-02 
624	 0,061513792552296 
625	 6,15766500880738E-02 
626	 6,15178687892315E-02 
627	 6,14518762537047E-02 
628	 6,17493987459492E-02 
629	 6,18815503884027E-02 
630	 6,16436074575983E-02 
631	 6,16707564661474E-02 
632	 6,19423430232125E-02 
633	 6,23105476388514E-02 
634	 6,24667583061988E-02 
635	 6,24304445922685E-02 
636	 6,27618264774189E-02 
637	 6,30326861656901E-02 
638	 6,29068141275518E-02 
639	 0,06307110184551 
640	 6,35107955336684E-02 
641	 6,38780348954636E-02 
642	 6,42070262013653E-02 
643	 6,44440881509433E-02 
644	 6,43037324429123E-02 
645	 6,41431481356053E-02 
646	 6,44458252194435E-02 
647	 6,47965199602762E-02 
648	 6,50738443657683E-02 
649	 6,53005386594076E-02 
650	 6,53515430282501E-02 
651	 6,51356311182184E-02 
652	 6,45987034344774E-02 
653	 6,40369065574042E-02 
654	 6,40588032094285E-02 
655	 6,39761250679807E-02 
656	 6,35910925856789E-02 
657	 6,32338039880948E-02 
658	 6,26896309880026E-02 
659	 6,17454070299584E-02 
660	 6,09911770757918E-02 
661	 6,05903262205995E-02 
662	 6,06415113475714E-02 
663	 6,04277871430699E-02 
664	 5,97225892333211E-02 
665	 5,98755880313415E-02 
666	 6,02360493400635E-02 
667	 5,95454155141667E-02 
668	 0,059120525026227 
669	 5,92448467903308E-02 
670	 5,95326363343426E-02 
671	 5,94986118569308E-02 
672	 5,88540932934296E-02 
673	 5,89536849630366E-02 
674	 5,95367842745443E-02 
675	 5,94541149698899E-02 
676	 5,90143006457553E-02 
677	 5,84737315769895E-02 
678	 5,86932202368777E-02 
679	 5,91544790899407E-02 
680	 5,91637305049454E-02 
681	 5,96478187813842E-02 
682	 6,04908498005919E-02 
683	 6,06949408307814E-02 
684	 6,06867682975719E-02 
685	 6,07785356820877E-02 
686	 6,12321657952346E-02 
687	 6,20892375055211E-02 
688	 6,33979886342865E-02 
689	 6,42035339026266E-02 
690	 6,44670152375135E-02 
691	 6,54506326502863E-02 
692	 6,67832159035214E-02 
693	 6,81027053307195E-02 
694	 6,98109367417393E-02 
695	 7,17751755181006E-02 
696	 7,34998963997991E-02 
697	 7,53063869367409E-02 
698	 7,73784754733978E-02 
699	 8,00116441255694E-02 
700	 8,26322067098651E-02 
701	 8,44925987532684E-02 
702	 8,65646802938325E-02 
703	 8,90211046617954E-02 
704	 9,16123978218474E-02 
705	 9,40287697313285E-02 
706	 9,60931247637617E-02 
707	 9,82232204562044E-02 
708	 0,100310429347848 
709	 0,102023595414634 
710	 0,103734175653813 
711	 0,10544874770239 
712	 0,106592512963928 
713	 0,107760217786544 
714	 0,109471329898846 
715	 0,110696757636936 
716	 0,111520875877662 
717	 0,112661716145462 
718	 0,113954346785274 
719	 0,11522911606194 
720	 0,115841202977239 
721	 0,116215914875224 
722	 0,116968320697928 
723	 0,117917397452056 
724	 0,118811112839036 
725	 0,118940766040597 
726	 0,119073205770862 
727	 0,119670276567777 
728	 0,12023090162997 
729	 0,120819766287676 
730	 0,121718786337064 
731	 0,122130898148721 
732	 0,122002538525704 
733	 0,122235518203038 
734	 0,122657507847459 
735	 0,123070598511616 
736	 0,123251657383672 
737	 0,123371919542193 
738	 0,124018362829536 
739	 0,124456993422318 
740	 0,124469966431207 
741	 0,124533402217594 
742	 0,124759581771766 
743	 0,125218619925075 
744	 0,125318117129885 
745	 0,125201941519737 
746	 0,125806008177654 
747	 0,126187934187994 
748	 0,125946084225272 
749	 0,126063921652763 
750	 0,126463765582126 
751	 0,126847733970694 
752	 0,127090596373739 
753	 0,127217096386812 
754	 0,12752759124565 
755	 0,127825895891388 
756	 0,127967211213009 
757	 0,127998809718036 
758	 0,128106643760445 
759	 0,128683341771453 
760	 0,128944501291833 
761	 0,128799160027886 
762	 0,129135940630823 
763	 0,129656704831594 
764	 0,130030641121584 
765	 0,130267967537171 
766	 0,130362539208679 
767	 0,130268092575672 
768	 0,130409559117015 
769	 0,13085125053481 
770	 0,130845855753718 
771	 0,130658323416691 
772	 0,130681011613296 
773	 0,131191501941761 
774	 0,131951381937955 
775	 0,132070765598187 
776	 0,132005249314402 
777	 0,131996473456214 
778	 0,131965873778742 
779	 0,132041910476778 
780	 0,132411716239052 
781	 0,132582857600731 
782	 0,132530242699676 
783	 0,132691619633772 
784	 0,132859193789175 
785	 0,132902765399029 
786	 0,132920017653928 
787	 0,133018836007757 
788	 0,133378389487986 
789	 0,1335100465998 
790	 0,133451106622488 
791	 0,134081772217177 
792	 0,134508009875727 
793	 0,134090856698985 
794	 0,134189244586784 
795	 0,134641839836226 
796	 0,134614628423128 
797	 0,134463539087542 
798	 0,134418786217887 
799	 0,135058754755532 
800	 0,135562526949236 
801	 0,135203126335062 
802	 0,135299705833355 
803	 0,135746188135202 
804	 0,135581983569445 
805	 0,135629392283948 
806	 0,136042231211623 
807	 0,135901812578362 
808	 0,135915015512666 
809	 0,136822113304271 
810	 0,136735714246965 
811	 0,135995363191061 
812	 0,136739782664031 
813	 0,137094109475276 
814	 0,136506656304075 
815	 0,136674166611799 
816	 0,137179627342218 
817	 0,13736249730532 
818	 0,13758301445683 
819	 0,137841047677346 
820	 0,137984966495627 
821	 0,137846036699161 
822	 0,137474646984232 
823	 0,137710356098929 
824	 0,138162681158269 
825	 0,138226392315696 
826	 0,138572912041391 
827	 0,13910577627783 
828	 0,13904666804451 
829	 0,138931205020772 
830	 0,139034096563428 
831	 0,139216414251564 
832	 0,139237755606742 
833	 0,138799014557035 
834	 0,139258917655517 
835	 0,14043230525635 
836	 0,140635348323506 
837	 0,14044465802564 
838	 0,140215810303166 
839	 0,140198497761091 
840	 0,14023811821891 
841	 0,140062831847138 
842	 0,140018771232793 
843	 0,140072601408572 
844	 0,139765427150697 
845	 0,139754499785047 
846	 0,140270308403826 
847	 0,140186023874415 
848	 0,139923212451107 
849	 0,140246893963877 
850	 0,140461906724416 
851	 0,140456182032658 
852	 0,140506722572029 
853	 0,14025415944585 
854	 0,139669987145146 
855	 0,139864372345282 
856	 0,14047990242961 
857	 0,140855431630017 
858	 0,140815199197085 
859	 0,140453165997063 
860	 0,140242479756237 
861	 0,140228740536241 
862	 0,140395848769145 
863	 0,14034705097521 
864	 0,140305234500458 
865	 0,140608099342824 
866	 0,14094992005805 
867	 0,141255433383829 
868	 0,141601566196202 
869	 0,141644332896994 
870	 0,141286511966894 
871	 0,140938966221277 
872	 0,141029154105479 
873	 0,141958580044191 
874	 0,142434178572286 
875	 0,142324137321269 
876	 0,142126278070688 
877	 0,142193806312814 
878	 0,142669938445957 
879	 0,143234074495107 
880	 0,143681192697601 
881	 0,143826508751018 
882	 0,143804669022077 
883	 0,143677035042595 
884	 0,143430740320861 
885	 0,143605531540097 
886	 0,1442533481778 
887	 0,144536262700779 
888	 0,144473762016199 
889	 0,144207903465846 
890	 0,144750865995058 
891	 0,145436242602714 
892	 0,144312723102283 
893	 0,143951542939436 
894	 0,14485417985493 
895	 0,145266068173397 
896	 0,145176804507168 
897	 0,144660497658239 
898	 0,144030408199102 
899	 0,143818713220054 
900	 0,144859369279178 
901	 0,145020875708187 
902	 0,144133564655953 
903	 0,14408475300761 
904	 0,144324211889075 
905	 0,144476666676172 
906	 0,144508076803496 
907	 0,144324072809131 
908	 0,143824951482045 
909	 0,143787722296053 
910	 0,14432019138134 
911	 0,145148820435879 
912	 0,145661814478899 
913	 0,145524911445933 
914	 0,144717538631593 
915	 0,144531819988323 
916	 0,146197665476381 
917	 0,145940551475985 
918	 0,144316541864852 
919	 0,144733002890801 
920	 0,14521945954451 
921	 0,145239834130239 
922	 0,145461734153676 
923	 0,145661836279428 
924	 0,14565755557266 
925	 0,145715943919148 
926	 0,145923425955592 
927	 0,146401020750632 
928	 0,145828308372318 
929	 0,144634961446608 
930	 0,145861001285077 
931	 0,146949983271303 
932	 0,146615970376088 
933	 0,147388747406862 
934	 0,148132984505072 
935	 0,147155632111688 
936	 0,147587293096055 
937	 0,148922623389619 
938	 0,147730668183898 
939	 0,146514433631885 
940	 0,146257541321834 
941	 0,1466410978694 
942	 0,147144772846126 
943	 0,147289013768105 
944	 0,147050338833725 
945	 0,146907904019181 
946	 0,147788791450014 
947	 0,147919935804872 
948	 0,146977677570993 
949	 0,145624965803765 
950	 0,145382569395025 
951	 0,146784382225317 
952	 0,147145822741385 
953	 0,1463237861946 
954	 0,14463346425264 
955	 0,144429235427691 
956	 0,145723169877356 
957	 0,147408714200018 
958	 0,146749928559593 
959	 0,143901812154208 
960	 0,14449936944208 
961	 0,146149975271104 
962	 0,14677530715053 
963	 0,146510182836921 
964	 0,145793095594205 
965	 0,145320300229447 
966	 0,14500771102482 
967	 0,144949082432004 
968	 0,145375922695283 
969	 0,145839907418062 
970	 0,146222828848524 
971	 0,147282975132634 
972	 0,147604390760271 
973	 0,146089786966218 
974	 0,145413034207684 
975	 0,145763490438011 
976	 0,146592708081839 
977	 0,146885066615671 
978	 0,146509775289514 
979	 0,146100556993656 
980	 0,146552267268312 
981	 0,148114576134133 
982	 0,149508174727776 
983	 0,149615890240318 
984	 0,147755616578477 
985	 0,147873729992777 
986	 0,149392783439266 
987	 0,149736928825777 
988	 0,148655191178274 
989	 0,146907252994934 
990	 0,147691666459992 
991	 0,148391665516919 
992	 0,147960511770354 
993	 0,149080294150647 
994	 0,150292848236426 
995	 0,149931655331655 
996	 0,148838927278243 
997	 0,148019611873061 
998	 0,14905024956377 
999	 0,149975656056236 
1000	 0,150934809771301 
1001	 0,15497903052765 
1002	 0,15635303165883 
1003	 0,153152331055771 
1004	 0,15258208645585 
1005	 0,152955926494589 
1006	 0,152240905851417 
1007	 0,152892371299979 
1008	 0,154574588802862 
1009	 0,156062160497284 
1010	 0,155616041258384 
1011	 0,15330135597634 
1012	 0,150587213802099 
1013	 0,150871364675017 
1014	 0,154673258444124 
1015	 0,156461394478299 
1016	 0,154634853109309 
1017	 0,149303320739376 
1018	 0,150613363074579 
1019	 0,155668032546493 
1020	 0,15782403525975 
1021	 0,157775106860372 
1022	 0,156527370283276 
1023	 0,156752782113227 
1024	 0,157712918060736 
1025	 0,159103199135278 
1026	 0,16057401544817 
1027	 0,160821951760234 
1028	 0,159516808730067 
1029	 0,160658799626822 
1030	 0,161995207619173 
1031	 0,160544633830833 
1032	 0,15772281126105 
1033	 0,157520517101595 
1034	 0,167423439423384 
1035	 0,168108290095119 
1036	 0,158248360461771 
1037	 0,15291494321785 
1038	 0,158080190456216 
1039	 0,171115541584951 
1040	 0,162365040397173 
1041	 0,153789595951158 
1042	 0,162524884812836 
1043	 0,160359673864237 
1044	 0,154315261232646 
1045	 0,158732739586768 
1046	 0,164235357214593 
1047	 0,169745138701457 
1048	 0,177236785464679 
1049	 0,178559973960719 
1050	 0,173480113355919 
1051	 0,171836378393645 
1052	 0,166089769279654 
1053	 0,155658778516247 
1054	 0,158412099851035 
1055	 0,165386815289586 
1056	 0,167569208355639 
1057	 0,167741509051492 
1058	 0,168057109042203 
1059	 0,171235770783625 
1060	 0,180350890935379 
1061	 0,187390899690376 
1062	 0,173814635418152 
1063	 0,162658587746085 
1064	 0,161537407703711 
1065	 0,169603865510533 
1066	 0,173648001648618 
1067	 0,167458076788076 
1068	 0,153298912534675 
1069	 0,150230481952346 
1070	 0,169244923069694 
1071	 0,17480690941824 
1072	 0,178276400008824 
1073	 0,194519519284947 
1074	 0,186372299167174 
1075	 0,166894679957448 
