Wavelength	SCORFF200398.asd
325	 0,396004881173486 
326	 0,3431241740368 
327	 0,334260481349266 
328	 0,382193305076828 
329	 0,401490158475114 
330	 0,419698635705767 
331	 0,459366479450161 
332	 0,418677325920363 
333	 0,344547671289414 
334	 0,31882228792443 
335	 0,330855332441668 
336	 0,357556668690548 
337	 0,333931243988398 
338	 0,298180941858352 
339	 0,305775065124849 
340	 0,338483245902105 
341	 0,358963146172377 
342	 0,301568932596895 
343	 0,314855782517146 
344	 0,396560942875029 
345	 0,362264943677326 
346	 0,299758565046758 
347	 0,301040766620168 
348	 0,315243912633419 
349	 0,333646626048971 
350	 0,370573837620519 
351	 0,374145097596751 
352	 0,334114798923206 
353	 0,32305857062279 
354	 0,333890743948013 
355	 0,356597339270455 
356	 0,369579804597223 
357	 0,368274941940082 
358	 0,367267321041553 
359	 0,353682758822876 
360	 0,324862817989158 
361	 0,312851478989024 
362	 0,311424939226466 
363	 0,304367926663649 
364	 0,318546585863258 
365	 0,349511964726935 
366	 0,363621560006514 
367	 0,355806840223761 
368	 0,32952960504089 
369	 0,329033078104186 
370	 0,346039628262201 
371	 0,353342957705671 
372	 0,349658089115403 
373	 0,336779219907974 
374	 0,324938524658035 
375	 0,325811009129126 
376	 0,343998107108245 
377	 0,338599599748991 
378	 0,323620426969101 
379	 0,341863497751363 
380	 0,35931171923796 
381	 0,365677014968409 
382	 0,370019297437787 
383	 0,368002316320382 
384	 0,356674921894873 
385	 0,353389505809312 
386	 0,35861529263308 
387	 0,365371176444792 
388	 0,36727956545617 
389	 0,361848961026872 
390	 0,352069329714833 
391	 0,345439714475294 
392	 0,351131291602027 
393	 0,350367724890189 
394	 0,345201421562743 
395	 0,355594014603834 
396	 0,361805199101462 
397	 0,356565927222952 
398	 0,360671164063497 
399	 0,367753203116519 
400	 0,365866080191771 
401	 0,358377660017387 
402	 0,350191658208286 
403	 0,352859220108284 
404	 0,361725558403335 
405	 0,371633119902413 
406	 0,370569071382842 
407	 0,364164561072113 
408	 0,366620897325392 
409	 0,3721359973242 
410	 0,3766334479422 
411	 0,370341146797617 
412	 0,362069079591779 
413	 0,360174795584668 
414	 0,359589842964763 
415	 0,360444299004446 
416	 0,366483075300177 
417	 0,367751728827109 
418	 0,361550036279243 
419	 0,358697890507984 
420	 0,359016502647399 
421	 0,360993921155202 
422	 0,361990823156512 
423	 0,361680544609159 
424	 0,360875168724956 
425	 0,36374605769978 
426	 0,371209133960727 
427	 0,368183397196042 
428	 0,360123387433942 
429	 0,359998984856836 
430	 0,361603017154123 
431	 0,362990401304578 
432	 0,363657496284979 
433	 0,36270114527085 
434	 0,359735648566544 
435	 0,360435394906701 
436	 0,363591672453581 
437	 0,363792076802892 
438	 0,362586512439768 
439	 0,361202366492077 
440	 0,363896606950591 
441	 0,366190825473399 
442	 0,362111059746641 
443	 0,361071195786836 
444	 0,363828501806565 
445	 0,365349925616578 
446	 0,364354848727598 
447	 0,360875535707326 
448	 0,362879059770417 
449	 0,367457976689965 
450	 0,367314761256134 
451	 0,365837665257833 
452	 0,36429848182863 
453	 0,363710130858786 
454	 0,364152676966994 
455	 0,365448025357704 
456	 0,364241542574964 
457	 0,362178104811112 
458	 0,365619342164238 
459	 0,368031544546014 
460	 0,366971622645356 
461	 0,365919441835009 
462	 0,36546872138407 
463	 0,365928735216709 
464	 0,366060974582045 
465	 0,366033395296101 
466	 0,367897597789749 
467	 0,368621728849693 
468	 0,366709069029287 
469	 0,368246317854902 
470	 0,371077618725518 
471	 0,368999788861209 
472	 0,368610661414749 
473	 0,371218943433122 
474	 0,372472253006787 
475	 0,372831190191239 
476	 0,372914052713026 
477	 0,37071583583551 
478	 0,367814889185627 
479	 0,369572924271855 
480	 0,370746737689544 
481	 0,369214854492356 
482	 0,36843551547165 
483	 0,369156461629227 
484	 0,371994681854552 
485	 0,37251555280195 
486	 0,370598923011954 
487	 0,370714975685136 
488	 0,371829158785045 
489	 0,372931192698473 
490	 0,372591084714099 
491	 0,371504015012516 
492	 0,371872984878485 
493	 0,371903124713573 
494	 0,371288186793038 
495	 0,371685131681868 
496	 0,372524624196057 
497	 0,37303117086594 
498	 0,373157855698122 
499	 0,372953699975798 
500	 0,372545164170962 
501	 0,372728376168183 
502	 0,373671568001584 
503	 0,372418620608546 
504	 0,371373774592134 
505	 0,375482846010074 
506	 0,378127599438353 
507	 0,377847353423477 
508	 0,377942644643545 
509	 0,377679044980341 
510	 0,376401827593463 
511	 0,376183343996636 
512	 0,376988249925581 
513	 0,377768676872184 
514	 0,378053236019264 
515	 0,377751367562322 
516	 0,378194592297753 
517	 0,378433777426391 
518	 0,376929646236535 
519	 0,376801067864032 
520	 0,378282788502777 
521	 0,379227414851591 
522	 0,379361185966083 
523	 0,378677385868808 
524	 0,379091897108334 
525	 0,380300938877624 
526	 0,381037303623161 
527	 0,380982774157467 
528	 0,380377600522628 
529	 0,381537688342536 
530	 0,382563797519568 
531	 0,381156332612147 
532	 0,379649575081536 
533	 0,378858884857025 
534	 0,379462931192955 
535	 0,380045846472294 
536	 0,379717325629903 
537	 0,378678259460237 
538	 0,377710247306353 
539	 0,378095725357789 
540	 0,379091716043514 
541	 0,380115187553257 
542	 0,37973572870792 
543	 0,379332388440133 
544	 0,380260556839022 
545	 0,380880697009792 
546	 0,381128340403603 
547	 0,381950151503193 
548	 0,382090938642808 
549	 0,381132426752394 
550	 0,380558329775308 
551	 0,380868585424756 
552	 0,382600913114816 
553	 0,383315697040175 
554	 0,382551745914027 
555	 0,381668991853135 
556	 0,381266926872107 
557	 0,381701669602432 
558	 0,381181212260721 
559	 0,379986744267738 
560	 0,379571086324998 
561	 0,379619990072417 
562	 0,379894446378367 
563	 0,37954193591136 
564	 0,378923397569154 
565	 0,378605860926538 
566	 0,379459587498823 
567	 0,381055337541944 
568	 0,381017760499034 
569	 0,381159514034048 
570	 0,382595991854377 
571	 0,382960433087296 
572	 0,382895322189957 
573	 0,384685972822343 
574	 0,385880932842338 
575	 0,385867078036148 
576	 0,386328441704472 
577	 0,386951654912476 
578	 0,387273904930489 
579	 0,388089919699533 
580	 0,389348875993791 
581	 0,390373394430097 
582	 0,391208958412334 
583	 0,391914699121003 
584	 0,392854915087877 
585	 0,393924151950901 
586	 0,394904452991893 
587	 0,39525722696847 
588	 0,395213425383451 
589	 0,3965381417366 
590	 0,398141985103705 
591	 0,398921487601104 
592	 0,399031944085314 
593	 0,398836845487666 
594	 0,399154323533567 
595	 0,399876193284385 
596	 0,400851742207344 
597	 0,401329394834223 
598	 0,40152547126136 
599	 0,401892245635729 
600	 0,402422302144828 
601	 0,402820350654991 
602	 0,401948466596572 
603	 0,400959450250085 
604	 0,400778750302916 
605	 0,400917047344702 
606	 0,400890235261654 
607	 0,399669282135159 
608	 0,39871791831589 
609	 0,398509773189723 
610	 0,398114981336824 
611	 0,397694659452847 
612	 0,397536258714925 
613	 0,39714553981617 
614	 0,396646615694299 
615	 0,396888643800485 
616	 0,397053888660826 
617	 0,396672002132229 
618	 0,396542331866729 
619	 0,39668831362237 
620	 0,396924905164648 
621	 0,39723743969827 
622	 0,397457094216127 
623	 0,396948680956111 
624	 0,396277803103242 
625	 0,396062631286442 
626	 0,396102865068424 
627	 0,396359495038102 
628	 0,396857710627988 
629	 0,397235775421115 
630	 0,397348651299289 
631	 0,397752474739419 
632	 0,398161384178473 
633	 0,397977063285282 
634	 0,398306589006315 
635	 0,39926648790624 
636	 0,399868576954106 
637	 0,400478675621026 
638	 0,401381823493907 
639	 0,401750359228873 
640	 0,401892439825875 
641	 0,403048304619956 
642	 0,40375162456095 
643	 0,403634226637268 
644	 0,404389525033325 
645	 0,405253043316178 
646	 0,405052817204002 
647	 0,40459175681829 
648	 0,4041582566914 
649	 0,404034094208648 
650	 0,403703457629121 
651	 0,402848579857571 
652	 0,401888459558255 
653	 0,401128423192639 
654	 0,401122103197019 
655	 0,40053373911533 
656	 0,399142515815379 
657	 0,398423101909064 
658	 0,397517321974448 
659	 0,395529699331394 
660	 0,394743989522145 
661	 0,394887548630877 
662	 0,393739733601206 
663	 0,392397641475564 
664	 0,391407184650624 
665	 0,390598191993523 
666	 0,389882114856179 
667	 0,389110190916393 
668	 0,388825887012184 
669	 0,388902313913311 
670	 0,388225699418388 
671	 0,387569687620437 
672	 0,387525434851109 
673	 0,387167497094703 
674	 0,386603617866077 
675	 0,386451235148845 
676	 0,386430005433396 
677	 0,386448165135653 
678	 0,3865193045049 
679	 0,386671180072059 
680	 0,386938838003913 
681	 0,387590537231964 
682	 0,388524913566146 
683	 0,38926790812505 
684	 0,389857241028093 
685	 0,390405037238243 
686	 0,391485426881117 
687	 0,393286775544052 
688	 0,396045346623344 
689	 0,398339662174737 
690	 0,400056099638504 
691	 0,40273874503702 
692	 0,406430196848366 
693	 0,411049371036647 
694	 0,415695833959371 
695	 0,420343377779011 
696	 0,425454825362831 
697	 0,430971585563683 
698	 0,436885785192457 
699	 0,44316256288992 
700	 0,449738356080441 
701	 0,456558622915229 
702	 0,462829118976856 
703	 0,468706116772862 
704	 0,475564968241455 
705	 0,482114512277393 
706	 0,487616583314152 
707	 0,493360043568443 
708	 0,499113345095638 
709	 0,504064001790811 
710	 0,509011899673562 
711	 0,513978688219713 
712	 0,517808152998314 
713	 0,521570009273046 
714	 0,526203883650292 
715	 0,52986826916087 
716	 0,532706061612407 
717	 0,536034326345411 
718	 0,53924628667235 
719	 0,542053168333846 
720	 0,544203569398821 
721	 0,546105323947907 
722	 0,54830774994215 
723	 0,550115724960617 
724	 0,551504318734097 
725	 0,552943353473002 
726	 0,554328796131548 
727	 0,55559674350536 
728	 0,556738965297992 
729	 0,557752861687656 
730	 0,558631443677444 
731	 0,559514978939932 
732	 0,560394608755412 
733	 0,561018345532023 
734	 0,56160364201981 
735	 0,562314337505799 
736	 0,56251273453291 
737	 0,562671770919417 
738	 0,564399105834122 
739	 0,565334179359378 
740	 0,564824938912798 
741	 0,564801682921402 
742	 0,565107190605229 
743	 0,56536869527055 
744	 0,565437076360117 
745	 0,565437135004208 
746	 0,56590244215635 
747	 0,566381491241651 
748	 0,566582725939545 
749	 0,566311260530933 
750	 0,565964415975054 
751	 0,56616371502828 
752	 0,566545549478158 
753	 0,567018030161293 
754	 0,567693764082857 
755	 0,568096116963952 
756	 0,567939342655905 
757	 0,567984619886676 
758	 0,568327454017003 
759	 0,56889720472769 
760	 0,569493131018398 
761	 0,569937948335708 
762	 0,569812586778328 
763	 0,569891498785486 
764	 0,570857835380193 
765	 0,57148196272577 
766	 0,571670301272844 
767	 0,571830905985471 
768	 0,571983676200278 
769	 0,572209912432417 
770	 0,572832703919086 
771	 0,573219899850874 
772	 0,572632570828546 
773	 0,572182753940632 
774	 0,572213245817962 
775	 0,572961535095429 
776	 0,573353260487524 
777	 0,572890580166992 
778	 0,572556263987055 
779	 0,572347797124673 
780	 0,572085444164715 
781	 0,571901189584627 
782	 0,571791732362266 
783	 0,571605326528608 
784	 0,571529677020965 
785	 0,57165631981596 
786	 0,571651513050525 
787	 0,571579748298212 
788	 0,571642863910572 
789	 0,57174669204655 
790	 0,571843028173883 
791	 0,571821432975706 
792	 0,571910439123673 
793	 0,572276709367181 
794	 0,572633556479974 
795	 0,572956186292082 
796	 0,573334096149599 
797	 0,573537254689393 
798	 0,573530802166484 
799	 0,57354273973178 
800	 0,573640729771622 
801	 0,573854707980291 
802	 0,573820417436702 
803	 0,573663094195488 
804	 0,573845572023474 
805	 0,574228464554284 
806	 0,574691365352235 
807	 0,574876346209513 
808	 0,574930148938546 
809	 0,575030920897488 
810	 0,574884031282703 
811	 0,574589031545089 
812	 0,574577256710488 
813	 0,574500971576418 
814	 0,574271459113077 
815	 0,574227901103836 
816	 0,574355994056707 
817	 0,574597072552656 
818	 0,574890109519553 
819	 0,575066100918774 
820	 0,57464997089721 
821	 0,574518666975149 
822	 0,574998898455752 
823	 0,575218520103151 
824	 0,575154021830002 
825	 0,574904918786847 
826	 0,575193689458857 
827	 0,575904436784513 
828	 0,576082151288368 
829	 0,576129997968263 
830	 0,576284017499293 
831	 0,576691444768038 
832	 0,577151180010985 
833	 0,577368561142922 
834	 0,577479263698583 
835	 0,577635973128446 
836	 0,578177943567099 
837	 0,578918554094668 
838	 0,579657829210287 
839	 0,579956665195531 
840	 0,579809516708343 
841	 0,579302327615159 
842	 0,578936204438744 
843	 0,578764930858224 
844	 0,578370413247195 
845	 0,578213926635413 
846	 0,578465314762158 
847	 0,578448865962525 
848	 0,578211412830654 
849	 0,577935528585245 
850	 0,578118803508526 
851	 0,57846904468002 
852	 0,577599455967358 
853	 0,576651686233345 
854	 0,576280700400779 
855	 0,576295607380887 
856	 0,576376894090143 
857	 0,576119922044966 
858	 0,575752963618134 
859	 0,575341782686074 
860	 0,574822907225159 
861	 0,574760095035642 
862	 0,575315585443244 
863	 0,575447482200636 
864	 0,575329540826899 
865	 0,575345423697746 
866	 0,575738016657535 
867	 0,576428658227521 
868	 0,577055021973211 
869	 0,577204829969728 
870	 0,576851343823363 
871	 0,577200749764044 
872	 0,577858749326167 
873	 0,578212145111144 
874	 0,578478539880761 
875	 0,578836401063712 
876	 0,579678527365665 
877	 0,580580832120259 
878	 0,581293464726847 
879	 0,581672744902087 
880	 0,581758120594397 
881	 0,581648170660245 
882	 0,582013127764389 
883	 0,582650026105333 
884	 0,582604162403369 
885	 0,582711023811728 
886	 0,583166198148425 
887	 0,583349968073697 
888	 0,583505950162796 
889	 0,5838409238052 
890	 0,583540039698216 
891	 0,583007230032729 
892	 0,583425148736649 
893	 0,583900476719269 
894	 0,584021853526067 
895	 0,583463879815387 
896	 0,582570928888024 
897	 0,581724196199518 
898	 0,581563036962089 
899	 0,581859271820649 
900	 0,582054316098182 
901	 0,581430693735403 
902	 0,580187921978967 
903	 0,579902961583961 
904	 0,579951965952962 
905	 0,579946464081886 
906	 0,580190403559463 
907	 0,580263229478607 
908	 0,579564755094766 
909	 0,578910520107987 
910	 0,578514699605645 
911	 0,578306467884991 
912	 0,57816717991826 
913	 0,578107019938054 
914	 0,578551677215344 
915	 0,579209632830407 
916	 0,579693443910664 
917	 0,579582750875122 
918	 0,579322166497923 
919	 0,580390778721586 
920	 0,580572222217333 
921	 0,57951884625524 
922	 0,579471189366125 
923	 0,579946410085496 
924	 0,58040779432062 
925	 0,580508781995337 
926	 0,58045668501421 
927	 0,580732620580338 
928	 0,581443145457063 
929	 0,582387989181419 
930	 0,582791280285493 
931	 0,582731760345482 
932	 0,582425033477256 
933	 0,582882099326855 
934	 0,583775872000558 
935	 0,584499084782048 
936	 0,584026634202945 
937	 0,582932348988618 
938	 0,583476601381977 
939	 0,584125508129664 
940	 0,584307534723074 
941	 0,584370493288893 
942	 0,584024768358073 
943	 0,583158727875746 
944	 0,583467804216167 
945	 0,584140125825627 
946	 0,583142259417195 
947	 0,582367261704374 
948	 0,582294414102816 
949	 0,582676352509297 
950	 0,58231241999178 
951	 0,580816882336498 
952	 0,580645942555256 
953	 0,580765020982293 
954	 0,579681868422785 
955	 0,57905582818396 
956	 0,578917278127619 
957	 0,578521982701359 
958	 0,577416286085063 
959	 0,575954448528569 
960	 0,576392183487909 
961	 0,577701349751582 
962	 0,578738109397567 
963	 0,577629294738989 
964	 0,575712044466654 
965	 0,575407456959385 
966	 0,574770807435709 
967	 0,573956474281366 
968	 0,574963467122964 
969	 0,575183997895352 
970	 0,57403514053686 
971	 0,575004278902872 
972	 0,57588429552019 
973	 0,574680782810366 
974	 0,574278628256834 
975	 0,574705899895189 
976	 0,575091021317153 
977	 0,576258443679849 
978	 0,57740789862288 
979	 0,574830613082954 
980	 0,57449899819542 
981	 0,578324960082639 
982	 0,578781967969767 
983	 0,577292527868983 
984	 0,576116712514273 
985	 0,576884004357351 
986	 0,57866253901347 
987	 0,578926599442558 
988	 0,578908567243862 
989	 0,578856620636363 
990	 0,578467785568283 
991	 0,578198036523827 
992	 0,578332920259735 
993	 0,578600304206503 
994	 0,580308476226065 
995	 0,584341206977212 
996	 0,584482601536032 
997	 0,582350905648513 
998	 0,583461630911108 
999	 0,583489847867128 
1000	 0,582376232015084 
1001	 0,58427376483869 
1002	 0,585099153007692 
1003	 0,583506843960703 
1004	 0,58440308795711 
1005	 0,586102654065866 
1006	 0,586601607202958 
1007	 0,586453308468849 
1008	 0,587117804517939 
1009	 0,59105947247578 
1010	 0,590330419621084 
1011	 0,585787300974666 
1012	 0,587506237593195 
1013	 0,589792520265807 
1014	 0,590098294780897 
1015	 0,589104257835626 
1016	 0,587400778308241 
1017	 0,585932340565305 
1018	 0,588080410139472 
1019	 0,590778225104616 
1020	 0,588896129035967 
1021	 0,587052230887305 
1022	 0,586779268621184 
1023	 0,589144676707909 
1024	 0,59034648374084 
1025	 0,589607052530362 
1026	 0,590114494708334 
1027	 0,592056653131074 
1028	 0,594233325351209 
1029	 0,587390192004569 
1030	 0,581772705721053 
1031	 0,589337115681448 
1032	 0,595650629145698 
1033	 0,596397241141759 
1034	 0,588856624201123 
1035	 0,588576851796497 
1036	 0,596053544629655 
1037	 0,595373344077162 
1038	 0,594955832987495 
1039	 0,596734230730158 
1040	 0,590592599787213 
1041	 0,585013830080232 
1042	 0,586791918758898 
1043	 0,585694663637885 
1044	 0,586490835008862 
1045	 0,596695543557708 
1046	 0,600287357601123 
1047	 0,597332846875708 
1048	 0,596316084952318 
1049	 0,603154601790313 
1050	 0,614008626341844 
1051	 0,603438789525317 
1052	 0,595870986872129 
1053	 0,601845316453556 
1054	 0,606828584896209 
1055	 0,605171684083625 
1056	 0,595365276713265 
1057	 0,597727004820664 
1058	 0,607972821822921 
1059	 0,614863682351311 
1060	 0,611175795051805 
1061	 0,599244580893456 
1062	 0,587448517759591 
1063	 0,588017824059125 
1064	 0,600129976266515 
1065	 0,605920585935965 
1066	 0,602787092712871 
1067	 0,590453449172098 
1068	 0,571988182133327 
1069	 0,571983638237051 
1070	 0,602019600163855 
1071	 0,604505493147406 
1072	 0,593263726404036 
1073	 0,591992369966037 
1074	 0,604625385349433 
1075	 0,61813010214561 
