Wavelength	SCORFF200118.asd
325	 0,237001728450728 
326	 0,214756785605367 
327	 7,16856672955919E-02 
328	-8,66325210295787E-02 
329	-1,72184572324518E-02 
330	 6,81510396896726E-02 
331	 1,90659278525387E-02 
332	-5,00841888255076E-02 
333	-7,72818584201239E-02 
334	-6,51753505150805E-03 
335	 0,061076130763796 
336	 6,03839592910631E-02 
337	 4,57197395931979E-02 
338	 2,14847778714957E-03 
339	-0,069187210115001 
340	-6,93834321377291E-02 
341	-2,62301197322286E-02 
342	-0,02261445961791 
343	 5,73853856437637E-02 
344	 0,173955828866596 
345	 0,120017260174419 
346	 3,76376073584836E-02 
347	 6,86529470056147E-02 
348	 7,83246575840931E-02 
349	 6,08336590412691E-02 
350	 5,70971224360645E-02 
351	 5,91907931851518E-02 
352	 0,06027134764555 
353	 4,10434949008134E-02 
354	 9,90864333399406E-03 
355	-0,022971330913538 
356	 1,00349122654391E-02 
357	 7,77840619913499E-02 
358	 7,53750399080315E-02 
359	 5,55263064671974E-02 
360	 0,039809296928018 
361	 2,16275297846813E-02 
362	 0,018165949352962 
363	 5,19363965595292E-02 
364	 4,73557355348281E-02 
365	 1,34841308818648E-02 
366	 4,62848549287815E-02 
367	 0,068111645268816 
368	 3,57266398472727E-02 
369	 9,13638998200177E-04 
370	-2,11467857908729E-02 
371	-1,16978954873787E-02 
372	-5,05196440776336E-03 
373	-5,00826736541361E-03 
374	 1,94814258588686E-02 
375	 3,68184052806461E-02 
376	 2,76076990919751E-02 
377	 3,10905312160802E-02 
378	 3,81270258035696E-02 
379	 1,43716889456502E-02 
380	 2,87000376263282E-03 
381	 1,54105541613651E-02 
382	 3,28278205668915E-02 
383	 3,63205050256981E-02 
384	 0,013846440678222 
385	 1,07088846497505E-02 
386	 2,59673951473585E-02 
387	 3,60810778312663E-02 
388	 3,65638823693349E-02 
389	 2,58149784861712E-02 
390	 6,56467803891371E-03 
391	-2,65158890541931E-03 
392	 2,03185757209309E-02 
393	 1,48237769564144E-02 
394	-1,04862367245467E-02 
395	 1,32865498734387E-02 
396	 3,10064444582899E-02 
397	 1,99173304459582E-02 
398	 2,19181318249108E-02 
399	 2,72258163442586E-02 
400	 1,46912602630435E-02 
401	 4,28200764073236E-03 
402	 1,68024445341465E-03 
403	 3,44256606059286E-03 
404	 1,39399043905712E-02 
405	 3,23891231266154E-02 
406	 0,026811980568162 
407	 1,01521563086222E-02 
408	 1,71773998653019E-02 
409	 2,42667909836451E-02 
410	 2,48278345131761E-02 
411	 2,27788608615992E-02 
412	 1,82586067576823E-02 
413	 1,17141297361908E-02 
414	 1,27946673013845E-02 
415	 1,81527974028637E-02 
416	 1,50338493996463E-02 
417	 1,27347863394378E-02 
418	 1,42042363055213E-02 
419	 1,24875625503853E-02 
420	 1,11055332610874E-02 
421	 1,52187130214145E-02 
422	 1,60027007953427E-02 
423	 1,40750185353896E-02 
424	 1,90572541597355E-02 
425	 0,020621856907894 
426	 0,013808758958509 
427	 1,19566776671324E-02 
428	 1,40976575410237E-02 
429	 1,52571175644311E-02 
430	 1,49376935311259E-02 
431	 1,37117058951638E-02 
432	 1,53119889142787E-02 
433	 1,82789592414764E-02 
434	 2,09039933488996E-02 
435	 1,92670314517075E-02 
436	 1,56721745143937E-02 
437	 1,77836538669652E-02 
438	 1,90199382727737E-02 
439	 1,70414055763787E-02 
440	 1,48379156898192E-02 
441	 1,30756412540962E-02 
442	 1,21836300879531E-02 
443	 1,41702031512458E-02 
444	 1,82342074580209E-02 
445	 2,10436680118867E-02 
446	 2,03340303579989E-02 
447	 1,55503176408479E-02 
448	 1,46653260810011E-02 
449	 1,69609542730648E-02 
450	 1,89101250373338E-02 
451	 2,07029895954055E-02 
452	 2,15593181509276E-02 
453	 1,90127035966518E-02 
454	 1,55833139181215E-02 
455	 1,36695976699365E-02 
456	 1,18234598546086E-02 
457	 1,07203239333321E-02 
458	 0,012789078826908 
459	 1,45746358032627E-02 
460	 1,48218914993038E-02 
461	 1,62563369042678E-02 
462	 1,74754029864226E-02 
463	 1,63494448146935E-02 
464	 1,55057636861772E-02 
465	 1,53068827678535E-02 
466	 1,42160189365272E-02 
467	 1,41147106496116E-02 
468	 1,60382493033949E-02 
469	 1,76428946863093E-02 
470	 1,82283260863551E-02 
471	 1,72618053712531E-02 
472	 1,51581750640098E-02 
473	 1,29772933335764E-02 
474	 1,42562033112458E-02 
475	 1,62501775080518E-02 
476	 1,61157918007418E-02 
477	 1,51624212139523E-02 
478	 1,43323947279026E-02 
479	 0,015756997591876 
480	 1,58123008541017E-02 
481	 1,34588313463818E-02 
482	 1,42275994054086E-02 
483	 1,61619136748099E-02 
484	 0,015551660605176 
485	 1,54411551443319E-02 
486	 1,59825473235703E-02 
487	 1,44013839034874E-02 
488	 1,40733071067496E-02 
489	 1,71071667727615E-02 
490	 1,72339356043959E-02 
491	 1,49668869916165E-02 
492	 1,36098153650667E-02 
493	 0,013306564375184 
494	 1,40446447120384E-02 
495	 1,45474046878697E-02 
496	 1,48186633061547E-02 
497	 1,49941348126234E-02 
498	 1,47428931823158E-02 
499	 1,41775966105712E-02 
500	 1,37271892781458E-02 
501	 1,36638338659366E-02 
502	 1,41232626805679E-02 
503	 1,47040308752992E-02 
504	 1,54317737859612E-02 
505	 1,66133937339627E-02 
506	 1,64852134802161E-02 
507	 1,49948129602252E-02 
508	 1,42899241550894E-02 
509	 1,41656984696322E-02 
510	 0,014342435766802 
511	 1,50467301340411E-02 
512	 0,015747437013355 
513	 1,49525549673095E-02 
514	 1,47561009363782E-02 
515	 1,58027800359854E-02 
516	 1,59473010324343E-02 
517	 1,54300465374851E-02 
518	 1,48746902035704E-02 
519	 1,46103487870949E-02 
520	 1,50087942608517E-02 
521	 1,72489465883141E-02 
522	 1,80957855309973E-02 
523	 1,55779920819309E-02 
524	 1,49355788732802E-02 
525	 1,60520894646456E-02 
526	 1,68725831769976E-02 
527	 1,66734691165294E-02 
528	 1,55643982512309E-02 
529	 1,61700412777834E-02 
530	 1,71918469303438E-02 
531	 1,69434681244899E-02 
532	 1,61991989467813E-02 
533	 1,53470939939513E-02 
534	 0,014904243965832 
535	 1,50249823406235E-02 
536	 1,56466615749661E-02 
537	 1,53516784504138E-02 
538	 1,48586899722283E-02 
539	 1,59095257771126E-02 
540	 1,64675829185646E-02 
541	 1,61095433523703E-02 
542	 1,60923172360407E-02 
543	 1,61151943515019E-02 
544	 1,58282521237004E-02 
545	 1,51872010236079E-02 
546	 1,46706986332687E-02 
547	 1,56829657411643E-02 
548	 1,63351104964458E-02 
549	 1,58227185577052E-02 
550	 1,56743621987937E-02 
551	 1,57657512588039E-02 
552	 1,56227961734085E-02 
553	 1,55747313760169E-02 
554	 1,57209470627744E-02 
555	 1,60747977578209E-02 
556	 1,65280811842876E-02 
557	 1,69152311844538E-02 
558	 1,62864954600592E-02 
559	 1,52189949638508E-02 
560	 1,55206287924495E-02 
561	 1,60284060330156E-02 
562	 0,016213762563911 
563	 1,58775672475534E-02 
564	 1,53783812380228E-02 
565	 1,52085467320584E-02 
566	 1,53972614077095E-02 
567	 0,015795171472445 
568	 1,57853280997469E-02 
569	 0,015998568452158 
570	 1,67416374063338E-02 
571	 1,64327917700894E-02 
572	 1,56142688091806E-02 
573	 1,59406050166161E-02 
574	 0,016598995084673 
575	 1,72326520850417E-02 
576	 1,75041629191303E-02 
577	 1,74773697500234E-02 
578	 1,72773831193794E-02 
579	 1,74395899265201E-02 
580	 1,78653318069234E-02 
581	 1,78829029761016E-02 
582	 1,74619267926965E-02 
583	 1,67595881884042E-02 
584	 1,71433062037532E-02 
585	 1,80707575388297E-02 
586	 0,018309219911066 
587	 0,018190807641277 
588	 1,79164751489549E-02 
589	 1,80460807711172E-02 
590	 1,81366868319177E-02 
591	 1,78018755671648E-02 
592	 1,81480004321224E-02 
593	 1,88958028381217E-02 
594	 1,87359060062861E-02 
595	 0,018316940888211 
596	 1,80205413129538E-02 
597	 1,82939519963317E-02 
598	 1,87412648351955E-02 
599	 0,018720408474207 
600	 1,81795953710414E-02 
601	 1,74943614538124E-02 
602	 1,82363931575675E-02 
603	 1,87113081929874E-02 
604	 1,77242578049592E-02 
605	 1,80009631464888E-02 
606	 1,90297220990479E-02 
607	 1,84489375980444E-02 
608	 1,76654530321509E-02 
609	 1,72447020333087E-02 
610	 1,72933972539733E-02 
611	 1,74736398133635E-02 
612	 1,73545263510951E-02 
613	 1,68311150965908E-02 
614	 1,61653451682054E-02 
615	 1,62339445373687E-02 
616	 1,67048396782688E-02 
617	 1,72706466519685E-02 
618	 1,72432897665109E-02 
619	 1,70076126060005E-02 
620	 1,75776183172444E-02 
621	 1,78987664790879E-02 
622	 1,76560189073005E-02 
623	 0,017119994893325 
624	 1,66234964713537E-02 
625	 1,64838311621028E-02 
626	 1,64055219968676E-02 
627	 1,64091205652725E-02 
628	 1,67874382749453E-02 
629	 1,70177732236266E-02 
630	 1,68616851816741E-02 
631	 0,016737649747025 
632	 1,68187244849619E-02 
633	 1,73046353572799E-02 
634	 1,75843122011339E-02 
635	 1,75899917020416E-02 
636	 1,79290975222139E-02 
637	 1,81621380528821E-02 
638	 1,79378866233192E-02 
639	 1,78433889922048E-02 
640	 1,80046958333409E-02 
641	 1,85172850722155E-02 
642	 1,86359545616016E-02 
643	 0,018269763678333 
644	 0,018946851143277 
645	 0,019918090443191 
646	 2,00473190389949E-02 
647	 1,96949870570944E-02 
648	 1,90680688960763E-02 
649	 1,84455699292596E-02 
650	 1,84335349035704E-02 
651	 1,92589130995543E-02 
652	 1,89972443423908E-02 
653	 1,81868055597862E-02 
654	 1,85640831372681E-02 
655	 1,87800398958077E-02 
656	 1,84696836443794E-02 
657	 1,81888374597545E-02 
658	 1,76503801876021E-02 
659	 0,016584165109475 
660	 1,64564192985515E-02 
661	 1,70401361488159E-02 
662	 1,68273178982502E-02 
663	 1,60392493464426E-02 
664	 1,50127595802303E-02 
665	 1,54286867609085E-02 
666	 1,63670986490758E-02 
667	 1,60942219942496E-02 
668	 1,59292963894958E-02 
669	 1,60790538827511E-02 
670	 1,58860456101506E-02 
671	 1,56863794055813E-02 
672	 1,57485195539028E-02 
673	 1,57999211150823E-02 
674	 1,58210322373648E-02 
675	 1,58723831562783E-02 
676	 1,59835756138378E-02 
677	 1,61343165657902E-02 
678	 1,61616219286356E-02 
679	 1,60879122660336E-02 
680	 1,59606719704687E-02 
681	 1,61348940968142E-02 
682	 1,65290028086559E-02 
683	 1,65738372262557E-02 
684	 1,67239666147639E-02 
685	 1,71636291446037E-02 
686	 1,70695457094784E-02 
687	 1,68180726540091E-02 
688	 1,72573957225628E-02 
689	 1,77217167333713E-02 
690	 1,80842730311616E-02 
691	 1,87318517382187E-02 
692	 1,93157812822026E-02 
693	 0,019588447422149 
694	 2,07801806095962E-02 
695	 2,26981108584094E-02 
696	 2,42205663636944E-02 
697	 2,59396224709051E-02 
698	 2,80623097872425E-02 
699	 0,030279440225782 
700	 3,29958507173062E-02 
701	 3,67472021180373E-02 
702	 4,04563977461954E-02 
703	 4,40198554605053E-02 
704	 0,048119872877348 
705	 5,25152630923537E-02 
706	 5,70108133999948E-02 
707	 6,13517929320415E-02 
708	 6,57069360298815E-02 
709	 7,04634390167921E-02 
710	 7,51492253476788E-02 
711	 0,079675953911897 
712	 8,43676081643744E-02 
713	 8,89925852697378E-02 
714	 9,33185609818159E-02 
715	 9,73470260429764E-02 
716	 0,101139811469423 
717	 0,104884861468003 
718	 0,108415565307869 
719	 0,111668878285285 
720	 0,114621333705071 
721	 0,117660521896852 
722	 0,121276098577737 
723	 0,124121473544943 
724	 0,126158404058159 
725	 0,128468942955451 
726	 0,130653231373638 
727	 0,132491732215383 
728	 0,134220788044573 
729	 0,135929189420409 
730	 0,137723064932601 
731	 0,139364770992901 
732	 0,140755915597565 
733	 0,141891499895957 
734	 0,142818290099313 
735	 0,143612323881602 
736	 0,144669556060852 
737	 0,145974957465182 
738	 0,147393552585177 
739	 0,148294210755619 
740	 0,148580896234539 
741	 0,149334298887657 
742	 0,150195443438987 
743	 0,150654571747659 
744	 0,151281836081868 
745	 0,152062885339774 
746	 0,152587550890833 
747	 0,152924787515437 
748	 0,153160061943222 
749	 0,153633481905945 
750	 0,154210403147697 
751	 0,154619158143922 
752	 0,154981404553237 
753	 0,155394725828703 
754	 0,156114098536899 
755	 0,156797919714045 
756	 0,157182561353815 
757	 0,157249158137985 
758	 0,157413613192673 
759	 0,158575830924867 
760	 0,159222037926078 
761	 0,159032176180997 
762	 0,159093045729463 
763	 0,159349294756079 
764	 0,159700275213608 
765	 0,160196068279912 
766	 0,160745243417986 
767	 0,161146256419208 
768	 0,161384300183682 
769	 0,161510907015907 
770	 0,161862443191148 
771	 0,162348318402779 
772	 0,16281626089459 
773	 0,162979184863674 
774	 0,162908404441186 
775	 0,16304465538194 
776	 0,163164859609303 
777	 0,163183778114565 
778	 0,163277745710817 
779	 0,163514760422831 
780	 0,163966494351239 
781	 0,164171445222245 
782	 0,16411973169472 
783	 0,164268922160678 
784	 0,164457965009289 
785	 0,164584700980485 
786	 0,164687043454279 
787	 0,164892847796473 
788	 0,165436084368775 
789	 0,165771624242049 
790	 0,165795928650632 
791	 0,165870063005191 
792	 0,165945164097812 
793	 0,165992985276041 
794	 0,166169613641388 
795	 0,166475590113883 
796	 0,166889886633767 
797	 0,167070321148919 
798	 0,166974262926287 
799	 0,167031136157659 
800	 0,167208886175169 
801	 0,167449990957473 
802	 0,167687623723065 
803	 0,167879156863962 
804	 0,167923179319106 
805	 0,168219231097013 
806	 0,168788289156043 
807	 0,16888113374279 
808	 0,168772063747179 
809	 0,168823993231087 
810	 0,169152876014326 
811	 0,169700557617958 
812	 0,170293284395931 
813	 0,170463010397568 
814	 0,170167153569701 
815	 0,170541730029531 
816	 0,171065573141634 
817	 0,171014759281816 
818	 0,170944349997743 
819	 0,17101074159533 
820	 0,17130302513834 
821	 0,171549738540049 
822	 0,171649524016231 
823	 0,171893117293029 
824	 0,172189954500609 
825	 0,172391732079078 
826	 0,172885438231986 
827	 0,173480724825109 
828	 0,173253018147375 
829	 0,173258320017412 
830	 0,173914678730455 
831	 0,17399349876364 
832	 0,173899320203249 
833	 0,1743511996039 
834	 0,174959158585968 
835	 0,175466839558252 
836	 0,175375333716675 
837	 0,175323479181737 
838	 0,175600649148209 
839	 0,17551144553067 
840	 0,175400721425505 
841	 0,175845689997335 
842	 0,175928523196407 
843	 0,175661084307296 
844	 0,175839364645353 
845	 0,176287234300166 
846	 0,176800407686183 
847	 0,176684749291742 
848	 0,176334749265997 
849	 0,176414427962906 
850	 0,176632366453864 
851	 0,176813595457335 
852	 0,176587588026366 
853	 0,17648703266705 
854	 0,176738344121322 
855	 0,176714710331264 
856	 0,17661520401055 
857	 0,176799836624612 
858	 0,177032702909248 
859	 0,177168729367847 
860	 0,176981082752018 
861	 0,176584677753928 
862	 0,176169184024988 
863	 0,176403701952868 
864	 0,177006216067229 
865	 0,177508231858366 
866	 0,178042913804593 
867	 0,178519906097363 
868	 0,178698944027834 
869	 0,178574253943439 
870	 0,178246459548702 
871	 0,178235356676566 
872	 0,17855759804341 
873	 0,179149176926952 
874	 0,179846888305214 
875	 0,180425497868572 
876	 0,180368099108199 
877	 0,180588468040356 
878	 0,181367609018354 
879	 0,181858318830257 
880	 0,182108623031072 
881	 0,182261623100585 
882	 0,182678316250968 
883	 0,183131741313309 
884	 0,182710884297509 
885	 0,182828582831014 
886	 0,183772206878226 
887	 0,184174007649914 
888	 0,184168696171079 
889	 0,184005093246561 
890	 0,184239859258522 
891	 0,184557299895619 
892	 0,18394066007877 
893	 0,184006426383961 
894	 0,184948385013851 
895	 0,185217696145929 
896	 0,184849498862809 
897	 0,184045574773367 
898	 0,184000106107042 
899	 0,184483535226081 
900	 0,184746807580322 
901	 0,184456567499298 
902	 0,183821954344342 
903	 0,184048624898528 
904	 0,184485199783491 
905	 0,184730672364364 
906	 0,185104500623708 
907	 0,185486970908506 
908	 0,185674087298807 
909	 0,185196730562263 
910	 0,184524326350508 
911	 0,185549568637959 
912	 0,186061492795396 
913	 0,18525263644728 
914	 0,185025762746094 
915	 0,18547868720326 
916	 0,18643380591754 
917	 0,186058815716882 
918	 0,185001631755832 
919	 0,185973770401952 
920	 0,186518372062179 
921	 0,185918788390207 
922	 0,185052071615803 
923	 0,184496252158548 
924	 0,184717348024101 
925	 0,185678640546639 
926	 0,18629473703194 
927	 0,184693827521708 
928	 0,183578113684718 
929	 0,183713458745174 
930	 0,184779342954243 
931	 0,185429229691607 
932	 0,184896963704578 
933	 0,184094151520316 
934	 0,183450483022933 
935	 0,183365508020801 
936	 0,183989951904724 
937	 0,18456467414305 
938	 0,182784034805232 
939	 0,181932661380668 
940	 0,182910338433501 
941	 0,183306773265672 
942	 0,182568443444726 
943	 0,180610618271975 
944	 0,180580817245889 
945	 0,181521825812394 
946	 0,180662435509781 
947	 0,179558079175306 
948	 0,178538829102384 
949	 0,177271676557411 
950	 0,175569555285675 
951	 0,173731726655847 
952	 0,174400581603029 
953	 0,174853404402536 
954	 0,171731510748539 
955	 0,170354052106042 
956	 0,170905761103211 
957	 0,171029649091608 
958	 0,169564712247025 
959	 0,16695561254184 
960	 0,167608336441226 
961	 0,168526155669223 
962	 0,167522410104947 
963	 0,167587560625828 
964	 0,167864528358551 
965	 0,166494361772557 
966	 0,166445740224443 
967	 0,167357297848668 
968	 0,165538710339817 
969	 0,164942462198572 
970	 0,166694617703765 
971	 0,167347680110428 
972	 0,166381331300168 
973	 0,163944721116901 
974	 0,164574676400831 
975	 0,166816991679712 
976	 0,166650002215799 
977	 0,166220873615167 
978	 0,165976014787553 
979	 0,165452325992455 
980	 0,165361719603703 
981	 0,166139208453637 
982	 0,168271422552519 
983	 0,169227637803623 
984	 0,166840326856916 
985	 0,166434853092706 
986	 0,168031815099693 
987	 0,169686077948365 
988	 0,169944061445253 
989	 0,168809116109457 
990	 0,168175513595073 
991	 0,168286832954487 
992	 0,169113632683325 
993	 0,169164672227195 
994	 0,170117408964071 
995	 0,173399707869784 
996	 0,172907447716163 
997	 0,17089485590704 
998	 0,174018360808908 
999	 0,17474547903513 
1000	 0,172592080468556 
1001	 0,173819833460962 
1002	 0,174414015497906 
1003	 0,172951284229199 
1004	 0,17333167435011 
1005	 0,174569312040602 
1006	 0,175350083366189 
1007	 0,175163202897456 
1008	 0,175729725481079 
1009	 0,180290418323347 
1010	 0,179938929254075 
1011	 0,175047954410178 
1012	 0,174796864958307 
1013	 0,176452582198228 
1014	 0,178676679534754 
1015	 0,180765309386634 
1016	 0,181418630557309 
1017	 0,179948529499967 
1018	 0,179979234848465 
1019	 0,180381150325785 
1020	 0,178736375120574 
1021	 0,180852391911107 
1022	 0,185464737872842 
1023	 0,185613606842503 
1024	 0,18376357524777 
1025	 0,181728648138629 
1026	 0,183462062778258 
1027	 0,187600067690183 
1028	 0,192098517148933 
1029	 0,19049943230091 
1030	 0,188226644393533 
1031	 0,191847268697356 
1032	 0,191310868320092 
1033	 0,188991470097501 
1034	 0,193618320821421 
1035	 0,192898909893554 
1036	 0,186696286548562 
1037	 0,186813235962094 
1038	 0,190179686471325 
1039	 0,19426501434977 
1040	 0,194713033265567 
1041	 0,189405743749003 
1042	 0,179204774131849 
1043	 0,181524189927254 
1044	 0,189419516303622 
1045	 0,190011057402761 
1046	 0,188216086211994 
1047	 0,189401507928219 
1048	 0,204189347188343 
1049	 0,209889324650958 
1050	 0,202760582621372 
1051	 0,196211704159524 
1052	 0,192771601606448 
1053	 0,19350508838579 
1054	 0,19445034794134 
1055	 0,199271524746451 
1056	 0,208955401947636 
1057	 0,206033950892743 
1058	 0,195776995329443 
1059	 0,190102900226073 
1060	 0,19650602019522 
1061	 0,206217576778802 
1062	 0,19628309427106 
1063	 0,185317754195389 
1064	 0,18109933124906 
1065	 0,189413238561346 
1066	 0,196732481352155 
1067	 0,194699343333313 
1068	 0,174876945604478 
1069	 0,16976256199308 
1070	 0,199343228805958 
1071	 0,211561398681261 
1072	 0,210441603691941 
1073	 0,20717192989034 
1074	 0,201225965276961 
1075	 0,193839533226716 
