Wavelength	SCORFF200733.asd
325	 0,204229157496574 
326	 0,109649791603131 
327	 7,29907609995482E-03 
328	-4,69318474601705E-02 
329	 8,49001593821673E-02 
330	 0,139424454441487 
331	-5,24105695653813E-02 
332	-4,19708114310235E-02 
333	 0,103961271683604 
334	 0,149596489270705 
335	 0,121901202859847 
336	 5,45707202127967E-02 
337	 0,016754496399538 
338	-5,18371323131468E-02 
339	-0,167583312154521 
340	-7,84251005814532E-02 
341	 8,79535804466095E-02 
342	 7,32627163339902E-02 
343	 7,92400052185111E-02 
344	 0,129708998237336 
345	 8,20357921511628E-02 
346	 2,18570362552783E-02 
347	 3,95377096788863E-02 
348	 7,57391433480295E-02 
349	 0,104475456949075 
350	 9,85444663663776E-02 
351	 9,64043777501974E-02 
352	 0,107160911091195 
353	 0,089658030032616 
354	 5,76028384317909E-02 
355	 2,80262466780078E-02 
356	 4,06328841011132E-02 
357	 7,91866155918935E-02 
358	 8,60815442958439E-02 
359	 6,80556386881153E-02 
360	 2,92981908710437E-02 
361	-5,92546053313716E-03 
362	-1,79657969945607E-02 
363	 1,24717066545948E-02 
364	 3,71993121056211E-02 
365	 4,99836204166465E-02 
366	 6,69628650461433E-02 
367	 7,38311013294987E-02 
368	 6,31699595893789E-02 
369	 4,11396845733809E-02 
370	 2,11359343955644E-02 
371	 2,79897911108088E-02 
372	 3,74226010603525E-02 
373	 4,19174171093029E-02 
374	 4,29340854688237E-02 
375	 3,95505759402981E-02 
376	 3,19457274145042E-02 
377	 3,11016025540248E-02 
378	 3,31211017214184E-02 
379	 2,56775128700751E-02 
380	 1,62778962310332E-02 
381	 1,24911361338959E-02 
382	 3,97323196197606E-02 
383	 5,75247834329117E-02 
384	 3,31362746703884E-02 
385	 2,39736673541643E-02 
386	 3,34614378558925E-02 
387	 4,28383889681865E-02 
388	 4,32139412502425E-02 
389	 3,20580614799032E-02 
390	 1,71213212781665E-02 
391	 1,31958766784312E-02 
392	 3,70925614285503E-02 
393	 0,033590234683937 
394	 9,60249893589584E-03 
395	 2,57886187817886E-02 
396	 0,033045282219098 
397	 1,25003728619712E-02 
398	 1,18091587022031E-02 
399	 2,39126800672334E-02 
400	 3,14927218092909E-02 
401	 2,71087233359868E-02 
402	 1,44258614501268E-02 
403	 1,31403085550078E-02 
404	 2,15431660624964E-02 
405	 3,56604870701586E-02 
406	 3,62709804493753E-02 
407	 2,88573099650237E-02 
408	 2,90383930317618E-02 
409	 3,49594461276332E-02 
410	 4,23155802102999E-02 
411	 3,48273626691056E-02 
412	 0,022449759813086 
413	 1,53901432888835E-02 
414	 1,92748802524339E-02 
415	 2,84701357348509E-02 
416	 2,71040923334678E-02 
417	 2,53606494034471E-02 
418	 2,60414837398631E-02 
419	 1,90772180560762E-02 
420	 1,35572232988489E-02 
421	 2,18334740034288E-02 
422	 0,027506314472535 
423	 2,80382308546088E-02 
424	 2,95338285250588E-02 
425	 2,83926542514768E-02 
426	 2,32129129913954E-02 
427	 2,06011732267463E-02 
428	 2,11528158022407E-02 
429	 2,41538957037238E-02 
430	 2,70607000321744E-02 
431	 0,028276012046052 
432	 2,57027485896401E-02 
433	 2,25363396050001E-02 
434	 2,17993395483066E-02 
435	 2,47321323788288E-02 
436	 2,87836259875664E-02 
437	 0,027050345233644 
438	 2,63938241917149E-02 
439	 2,85644504192591E-02 
440	 2,61821557987985E-02 
441	 2,30768280963273E-02 
442	 2,47565873268654E-02 
443	 0,024056512208171 
444	 2,14347045700728E-02 
445	 0,024402354978698 
446	 2,67365708616085E-02 
447	 0,024950978382403 
448	 2,40640656188283E-02 
449	 2,52360883757513E-02 
450	 2,95772910937884E-02 
451	 3,10100966101477E-02 
452	 2,84912818625299E-02 
453	 2,74732378404759E-02 
454	 2,58311106782781E-02 
455	 2,18040929910652E-02 
456	 0,023469967853048 
457	 2,83865114053946E-02 
458	 2,56266176390578E-02 
459	 2,46517740919784E-02 
460	 2,84371836245821E-02 
461	 2,94833202446341E-02 
462	 2,87289401007212E-02 
463	 0,02839143105649 
464	 2,74398170394968E-02 
465	 2,61123504902261E-02 
466	 2,55188112014906E-02 
467	 2,61312270830699E-02 
468	 2,80234694427181E-02 
469	 2,95545095184718E-02 
470	 0,029412512970941 
471	 2,52287196703543E-02 
472	 2,32505263630651E-02 
473	 2,51741211711724E-02 
474	 2,83227694437922E-02 
475	 2,88943274899575E-02 
476	 2,37866424307927E-02 
477	 2,34031575348393E-02 
478	 2,69133009349162E-02 
479	 2,57741434194491E-02 
480	 2,46206323074542E-02 
481	 0,025250841315231 
482	 2,45215766672879E-02 
483	 2,43478674619941E-02 
484	 2,80314642472429E-02 
485	 2,96696582419629E-02 
486	 2,83601691598857E-02 
487	 2,71812238970903E-02 
488	 2,70019682547262E-02 
489	 2,82943676060879E-02 
490	 2,88824326790293E-02 
491	 2,87933353041545E-02 
492	 0,029077275239272 
493	 2,88548957356231E-02 
494	 2,79432211911864E-02 
495	 2,67177020916522E-02 
496	 2,63793760324615E-02 
497	 2,81595030337277E-02 
498	 0,029614980363373 
499	 2,99974430392401E-02 
500	 2,89595680130508E-02 
501	 2,82771037100953E-02 
502	 2,87467158046113E-02 
503	 2,75318287008472E-02 
504	 0,026292621197166 
505	 0,028496879652802 
506	 0,031063933711165 
507	 3,23419236940773E-02 
508	 2,96600311278102E-02 
509	 2,72154472646186E-02 
510	 2,87059264920063E-02 
511	 2,97794391931761E-02 
512	 3,00373357218265E-02 
513	 3,07659818648556E-02 
514	 3,12700401548282E-02 
515	 3,11816003571198E-02 
516	 2,99720535467491E-02 
517	 2,91347884256297E-02 
518	 3,07905557247067E-02 
519	 3,12202828396626E-02 
520	 0,030340081173992 
521	 3,17301307331939E-02 
522	 3,27691734182437E-02 
523	 3,17241348318646E-02 
524	 3,16947081189875E-02 
525	 3,24527708206594E-02 
526	 3,23506727754593E-02 
527	 3,23184211874679E-02 
528	 3,25296255838327E-02 
529	 3,22410668347246E-02 
530	 3,20539294427114E-02 
531	 3,26842913190761E-02 
532	 3,24785853015656E-02 
533	 3,16808413304004E-02 
534	 3,22527412120458E-02 
535	 3,29815781706887E-02 
536	 3,31607741900912E-02 
537	 3,32608641815079E-02 
538	 3,33008239258056E-02 
539	 3,32176699440069E-02 
540	 3,30212745674123E-02 
541	 3,28308033620573E-02 
542	 3,30738477318389E-02 
543	 3,35101693669698E-02 
544	 3,38774297719679E-02 
545	 3,41143836623386E-02 
546	 0,034233767707499 
547	 3,43842668713125E-02 
548	 3,42571728034586E-02 
549	 3,38810154419338E-02 
550	 3,44458289279012E-02 
551	 3,55255924178175E-02 
552	 3,62988171314735E-02 
553	 3,65059300785965E-02 
554	 3,61485422598326E-02 
555	 0,035654824583491 
556	 3,53576728651982E-02 
557	 3,55162119067845E-02 
558	 3,59492170168602E-02 
559	 3,62774229715198E-02 
560	 3,55698357278735E-02 
561	 3,54023771844921E-02 
562	 3,61986644754874E-02 
563	 3,63005707075218E-02 
564	 3,58789308936565E-02 
565	 3,53562692431143E-02 
566	 3,55697647538948E-02 
567	 3,65019763407837E-02 
568	 3,72916314888639E-02 
569	 3,76538644415545E-02 
570	 3,74191677397031E-02 
571	 3,70603285758869E-02 
572	 3,69259673816013E-02 
573	 3,75671877338078E-02 
574	 3,81760050913529E-02 
575	 3,84417596253025E-02 
576	 3,85372464773158E-02 
577	 3,84588423423551E-02 
578	 3,82119528035123E-02 
579	 3,85725153916808E-02 
580	 3,93372384038878E-02 
581	 3,93513113321449E-02 
582	 3,90172689975779E-02 
583	 3,86406864439866E-02 
584	 3,86335820586574E-02 
585	 3,90996886978486E-02 
586	 4,01790331788014E-02 
587	 4,04794641526996E-02 
588	 3,98995187598317E-02 
589	 4,01956957035274E-02 
590	 0,040615114339172 
591	 4,04286287492826E-02 
592	 4,07409192014896E-02 
593	 4,12867238728854E-02 
594	 4,07264968871367E-02 
595	 4,03057016590383E-02 
596	 4,05513827995249E-02 
597	 4,07349611641687E-02 
598	 4,08949996728871E-02 
599	 4,12168451409967E-02 
600	 4,12971601633799E-02 
601	 4,11230767604863E-02 
602	 4,11710270352458E-02 
603	 4,09833540094614E-02 
604	 4,03110072412278E-02 
605	 4,07552733447827E-02 
606	 4,17228397617379E-02 
607	 4,11233676432174E-02 
608	 4,03994857099065E-02 
609	 0,040087207782617 
610	 3,99142656413082E-02 
611	 4,00085939087622E-02 
612	 4,05341797757447E-02 
613	 4,03990636184531E-02 
614	 0,039795400704521 
615	 4,03941391598817E-02 
616	 4,08244893507329E-02 
617	 4,02770166283948E-02 
618	 3,98083586604077E-02 
619	 3,97705206668971E-02 
620	 4,05808046154682E-02 
621	 4,10912689934763E-02 
622	 4,09886238111621E-02 
623	 0,040984866345891 
624	 4,07814471327267E-02 
625	 4,00792310735581E-02 
626	 4,00878260632922E-02 
627	 4,06944680009971E-02 
628	 4,08398589104351E-02 
629	 4,06330808947243E-02 
630	 4,02188906096586E-02 
631	 4,03534150702511E-02 
632	 4,08188816599446E-02 
633	 4,11277677097621E-02 
634	 0,041096545190248 
635	 4,08689196881065E-02 
636	 4,13668156444154E-02 
637	 4,18076026600899E-02 
638	 4,15539441165665E-02 
639	 4,15623070379853E-02 
640	 4,18917638899187E-02 
641	 4,22938703537735E-02 
642	 4,23669614600695E-02 
643	 4,21055669308068E-02 
644	 4,26788223305064E-02 
645	 4,34152059565128E-02 
646	 4,33220604921045E-02 
647	 4,26905881918363E-02 
648	 4,19438880604392E-02 
649	 4,22110237105808E-02 
650	 4,26936106031429E-02 
651	 4,28046916097654E-02 
652	 4,24376201357744E-02 
653	 4,19866810207156E-02 
654	 4,23312058495959E-02 
655	 4,24002488490666E-02 
656	 4,19580865004125E-02 
657	 0,041813513976993 
658	 4,14965607140471E-02 
659	 0,040515554269658 
660	 3,99408105483471E-02 
661	 3,98543358356498E-02 
662	 3,97796167277951E-02 
663	 3,96447303859645E-02 
664	 3,94399431308549E-02 
665	 3,95284537315573E-02 
666	 0,039725961942316 
667	 3,96883493459346E-02 
668	 3,96252160886308E-02 
669	 0,039552693479459 
670	 3,93197121289948E-02 
671	 3,90374258308542E-02 
672	 3,88203763242461E-02 
673	 3,88583339549268E-02 
674	 3,90935832650245E-02 
675	 3,93323008279679E-02 
676	 3,95037029891051E-02 
677	 3,95509199365239E-02 
678	 3,93920347255901E-02 
679	 3,93232266727181E-02 
680	 3,96891635585096E-02 
681	 4,01342120760511E-02 
682	 4,05176648819073E-02 
683	 4,07426155189269E-02 
684	 4,07967545426554E-02 
685	 4,07452533470157E-02 
686	 4,11068062164167E-02 
687	 4,17447148532063E-02 
688	 4,22892482628717E-02 
689	 4,28569585762473E-02 
690	 4,34777945591768E-02 
691	 4,41817240439168E-02 
692	 4,49302339932591E-02 
693	 4,57033923796478E-02 
694	 4,67544500456791E-02 
695	 4,79924677301747E-02 
696	 4,90578099361297E-02 
697	 5,02283366558712E-02 
698	 0,051587487100873 
699	 5,28741081710983E-02 
700	 5,43194600944931E-02 
701	 5,62466616529463E-02 
702	 5,77909111388643E-02 
703	 0,058950829971039 
704	 6,05420719563703E-02 
705	 6,20682332287668E-02 
706	 6,32607419099993E-02 
707	 6,46727138695198E-02 
708	 6,61967530241566E-02 
709	 6,74864650126087E-02 
710	 6,87443006114647E-02 
711	 6,99579923608513E-02 
712	 7,07901497374924E-02 
713	 0,071620758983769 
714	 7,27894637209239E-02 
715	 7,37984243460948E-02 
716	 7,46016829234371E-02 
717	 7,53476593891704E-02 
718	 7,60221304468369E-02 
719	 7,66505768766678E-02 
720	 7,73602974379871E-02 
721	 0,078058617717677 
722	 7,86164268959268E-02 
723	 7,90899307785686E-02 
724	 7,94460992471104E-02 
725	 7,94945981929579E-02 
726	 7,96691543825826E-02 
727	 8,01984421367127E-02 
728	 8,05349379973633E-02 
729	 8,07561462613868E-02 
730	 8,11372176101233E-02 
731	 8,15485120714285E-02 
732	 8,19523947870886E-02 
733	 8,23987303335716E-02 
734	 8,26798460480017E-02 
735	 8,26247901818263E-02 
736	 8,23545961911187E-02 
737	 8,22195814202274E-02 
738	 8,30690285069534E-02 
739	 8,35782869108846E-02 
740	 8,33557791993493E-02 
741	 8,33986187907754E-02 
742	 8,35759669096088E-02 
743	 8,36450962225544E-02 
744	 8,36979303139273E-02 
745	 8,38367827563963E-02 
746	 0,084395446536021 
747	 8,45856393514256E-02 
748	 8,41090052969116E-02 
749	 8,41371336635708E-02 
750	 8,44641613004981E-02 
751	 0,084549508434988 
752	 8,46592980437397E-02 
753	 8,48376154099028E-02 
754	 0,085015948659351 
755	 8,52020698486164E-02 
756	 8,53770720765289E-02 
757	 8,52474580126446E-02 
758	 8,51569251243887E-02 
759	 8,59327530522478E-02 
760	 8,63639042283468E-02 
761	 8,61403430442326E-02 
762	 8,58164721993108E-02 
763	 8,58970456308757E-02 
764	 8,67525881982372E-02 
765	 8,70305409651652E-02 
766	 8,68019681448855E-02 
767	 8,70060062363008E-02 
768	 8,70955357548854E-02 
769	 8,69412325965622E-02 
770	 8,69658465122486E-02 
771	 8,71699062527571E-02 
772	 8,75041887791908E-02 
773	 8,78459894916484E-02 
774	 8,80781891225335E-02 
775	 8,79917982579984E-02 
776	 0,08782238545588 
777	 8,77229521672542E-02 
778	 8,77618772733614E-02 
779	 8,78582293134116E-02 
780	 8,78748903918245E-02 
781	 8,80493569784875E-02 
782	 8,83430420111879E-02 
783	 8,83932445512956E-02 
784	 8,84754725899371E-02 
785	 8,87360777550551E-02 
786	 8,87942916174045E-02 
787	 8,87076175452481E-02 
788	 8,86630013018421E-02 
789	 8,87366361508374E-02 
790	 8,89206251743226E-02 
791	 8,90642972454848E-02 
792	 8,90902210738981E-02 
793	 0,088968213444413 
794	 8,89999798091557E-02 
795	 8,92171714267921E-02 
796	 8,96034582324945E-02 
797	 8,97026003659275E-02 
798	 8,95219908525756E-02 
799	 8,99830455567144E-02 
800	 9,03788793057725E-02 
801	 9,00522371493266E-02 
802	 8,99285537222896E-02 
803	 9,00326961752754E-02 
804	 8,99461235587661E-02 
805	 8,99445261308685E-02 
806	 9,01024597313275E-02 
807	 9,02637806051241E-02 
808	 9,04652897052609E-02 
809	 9,07394402307649E-02 
810	 9,06768320739438E-02 
811	 9,04364528535678E-02 
812	 9,06869360095429E-02 
813	 9,09904339214486E-02 
814	 9,11703982932004E-02 
815	 9,13625175104364E-02 
816	 9,15095731390766E-02 
817	 9,15317551237216E-02 
818	 9,12076234915836E-02 
819	 9,08058757940474E-02 
820	 9,12705751331982E-02 
821	 9,16419179306412E-02 
822	 9,15101385066073E-02 
823	 9,14622035300181E-02 
824	 9,15248250726607E-02 
825	 9,16563422731676E-02 
826	 9,17572182770361E-02 
827	 9,18481042361898E-02 
828	 9,21127470914665E-02 
829	 9,22818204134637E-02 
830	 9,22060115658524E-02 
831	 9,19078515974475E-02 
832	 9,16732985670782E-02 
833	 9,18689370124865E-02 
834	 9,25971921427635E-02 
835	 9,34864775129434E-02 
836	 9,33677754139847E-02 
837	 9,29218746504187E-02 
838	 9,26093358588503E-02 
839	 9,27932688985395E-02 
840	 9,30945365813568E-02 
841	 9,29192122951767E-02 
842	 9,27356386580334E-02 
843	 9,26440521308845E-02 
844	 9,25309766966079E-02 
845	 9,26548810398762E-02 
846	 0,093032436075213 
847	 9,27272924835882E-02 
848	 9,22798702988376E-02 
849	 9,25833841835268E-02 
850	 9,29694648240164E-02 
851	 9,32555179195448E-02 
852	 9,34879231308095E-02 
853	 9,33785959092202E-02 
854	 9,29163344228942E-02 
855	 9,32065912260824E-02 
856	 9,34725947776373E-02 
857	 9,25136379658283E-02 
858	 9,23324124590617E-02 
859	 9,29333214771802E-02 
860	 9,26775600143692E-02 
861	 9,23289105729653E-02 
862	 9,22910334907533E-02 
863	 9,24572174611969E-02 
864	 9,28576320597373E-02 
865	 9,35215374282244E-02 
866	 9,38653182343451E-02 
867	 0,093820101674088 
868	 9,37349898987933E-02 
869	 0,093259087565393 
870	 9,24682815976701E-02 
871	 9,27756712009645E-02 
872	 9,33242400309878E-02 
873	 9,29667618903072E-02 
874	 9,32001753962872E-02 
875	 9,38803095842109E-02 
876	 9,36075054372573E-02 
877	 9,36119358799306E-02 
878	 9,42657486180446E-02 
879	 9,45939359031754E-02 
880	 9,45828511170269E-02 
881	 9,43283636743934E-02 
882	 9,42442206448657E-02 
883	 9,43840407293241E-02 
884	 9,45983479540505E-02 
885	 9,49283048224623E-02 
886	 9,53212285135512E-02 
887	 9,56042698588837E-02 
888	 9,54510338934616E-02 
889	 9,47120781202704E-02 
890	 0,0953682519575 
891	 0,096556231222314 
892	 9,55411502487382E-02 
893	 9,49887272593197E-02 
894	 9,55648333942779E-02 
895	 0,096207715079619 
896	 9,62401601221536E-02 
897	 9,52515527361807E-02 
898	 9,43066594090504E-02 
899	 9,40496864733092E-02 
900	 9,53019630765786E-02 
901	 9,54248422487945E-02 
902	 9,42822013717536E-02 
903	 9,44946083779999E-02 
904	 9,51431284620601E-02 
905	 9,55541162391017E-02 
906	 9,53269616624232E-02 
907	 9,49274707458995E-02 
908	 9,50948270871861E-02 
909	 9,48029271223432E-02 
910	 9,42403354544314E-02 
911	 9,47916631484457E-02 
912	 9,53021283429874E-02 
913	 9,51751851700759E-02 
914	 9,43857582445027E-02 
915	 9,38114625169278E-02 
916	 0,094379381203109 
917	 9,51092436398465E-02 
918	 9,56683570734286E-02 
919	 9,57580423959999E-02 
920	 9,61331625747596E-02 
921	 9,66614984902803E-02 
922	 9,53550836860583E-02 
923	 9,41857643558435E-02 
924	 9,47981719652274E-02 
925	 9,56714053336411E-02 
926	 9,63258920498025E-02 
927	 9,64022085599678E-02 
928	 9,60621341262959E-02 
929	 9,55829046814564E-02 
930	 0,095675739814537 
931	 0,096035298870332 
932	 9,64750544408076E-02 
933	 9,72493012280941E-02 
934	 9,74141940733776E-02 
935	 9,58584851527984E-02 
936	 9,57408977450822E-02 
937	 9,67084370216678E-02 
938	 9,55358822673733E-02 
939	 0,094962796660317 
940	 9,57081365034794E-02 
941	 9,57669247825254E-02 
942	 9,57021807310832E-02 
943	 9,61175648210455E-02 
944	 9,70605464421074E-02 
945	 9,79001895534408E-02 
946	 9,74935177105693E-02 
947	 9,69075918020641E-02 
948	 9,64936713745256E-02 
949	 9,62222156736814E-02 
950	 9,60911807467028E-02 
951	 9,60575854387347E-02 
952	 9,58809434779607E-02 
953	 9,56144404203143E-02 
954	 9,53796448854394E-02 
955	 9,58054172693578E-02 
956	 9,65227196401291E-02 
957	 9,63580851076492E-02 
958	 9,54511730979368E-02 
959	 9,43037985798377E-02 
960	 9,47254392328901E-02 
961	 9,62736939333082E-02 
962	 9,81701906886056E-02 
963	 9,76268046575057E-02 
964	 9,60392708608379E-02 
965	 9,61293680727073E-02 
966	 9,61906790724868E-02 
967	 9,59037660657321E-02 
968	 9,56204019040161E-02 
969	 9,45666645723721E-02 
970	 9,31435708400149E-02 
971	 9,53934623192209E-02 
972	 9,68353765787753E-02 
973	 9,36822844818897E-02 
974	 9,28827383123832E-02 
975	 9,40209042001538E-02 
976	 9,41810203172855E-02 
977	 9,42832212274258E-02 
978	 9,46061708568348E-02 
979	 9,54487137046652E-02 
980	 0,096449993569289 
981	 0,097509986500255 
982	 0,099620064924081 
983	 9,98348890397464E-02 
984	 9,57809967722086E-02 
985	 9,59863358735338E-02 
986	 9,91076206406359E-02 
987	 9,93271971762994E-02 
988	 9,92516905305023E-02 
989	 9,94365092658077E-02 
990	 9,96298071871968E-02 
991	 0,099225420424549 
992	 9,81069458761698E-02 
993	 9,74537679510098E-02 
994	 0,097799625287808 
995	 9,92684632770813E-02 
996	 9,77729419111102E-02 
997	 9,55906560405547E-02 
998	 9,86481863150351E-02 
999	 9,98285299091259E-02 
1000	 9,86539244940063E-02 
1001	 0,101272315371594 
1002	 0,10258625854924 
1003	 0,100353435510422 
1004	 9,73445367502256E-02 
1005	 9,54086609955288E-02 
1006	 9,62182330483534E-02 
1007	 0,100419101863442 
1008	 0,105053806906324 
1009	 0,105046592372739 
1010	 0,102036615083044 
1011	 0,097825950485473 
1012	 9,58513523863165E-02 
1013	 9,86706789881465E-02 
1014	 0,10499152270244 
1015	 0,102396055983862 
1016	 9,78159841137216E-02 
1017	 9,79392725185404E-02 
1018	 0,102057332210553 
1019	 0,105297705877722 
1020	 0,100828209258293 
1021	 9,81087760837324E-02 
1022	 9,90080592907533E-02 
1023	 0,101833743205675 
1024	 0,104344980824137 
1025	 0,10506841571044 
1026	 0,102526762494949 
1027	 9,97714030485188E-02 
1028	 9,87943478529341E-02 
1029	 9,70484353555925E-02 
1030	 9,82439816592553E-02 
1031	 0,105818263449491 
1032	 0,103662738880144 
1033	 0,097328576707071 
1034	 0,104329583689673 
1035	 0,109975638189753 
1036	 0,110131038511416 
1037	 0,104612749411002 
1038	 0,106246940897014 
1039	 0,115929073725106 
1040	 0,105143843408345 
1041	 9,29701046669296E-02 
1042	 9,57051902760388E-02 
1043	 9,74688725251205E-02 
1044	 0,100412726109694 
1045	 0,109449039454616 
1046	 0,109053296415664 
1047	 0,104228248087964 
1048	 0,115375634177121 
1049	 0,120496662316516 
1050	 0,11491888014913 
1051	 0,106542518513465 
1052	 0,100549562134034 
1053	 0,100112341502856 
1054	 0,105749531506881 
1055	 0,11182528278529 
1056	 0,113529024073857 
1057	 0,115973758423173 
1058	 0,113740833607913 
1059	 9,97429867070599E-02 
1060	 0,107374285926457 
1061	 0,124179093485193 
1062	 0,106437571545547 
1063	 9,14780918896841E-02 
1064	 9,15751081448204E-02 
1065	 0,108301436367706 
1066	 0,11573083792028 
1067	 0,103831931703344 
1068	 8,89946902817569E-02 
1069	 8,34937034676032E-02 
1070	 9,48501770393011E-02 
1071	 0,10344858026119 
1072	 0,108974789760774 
1073	 0,113541018983433 
1074	 0,118829057934771 
1075	 0,123021504264448 
