Wavelength	SCORFF200846.asd
325	 0,601729882157593 
326	 0,492741054183186 
327	 0,355307331851078 
328	 0,253957468013239 
329	 0,240804426418566 
330	 0,267429587381197 
331	 0,291590335104979 
332	 0,232727298168368 
333	 0,146168229809349 
334	 0,109549908884674 
335	 0,135027349842477 
336	 0,193318660190245 
337	 0,209226021368807 
338	 0,191825164556652 
339	 0,146570620751001 
340	 0,149335025092052 
341	 0,166678422023583 
342	 9,93106969619607E-02 
343	 0,106200909872666 
344	 0,189501395592499 
345	 0,164040924781977 
346	 0,123018392872831 
347	 0,159258127254633 
348	 0,161066030434128 
349	 0,136114036096103 
350	 0,147181997543089 
351	 0,155179961638271 
352	 0,144074577866127 
353	 0,12261504902426 
354	 0,106448080071206 
355	 0,114292993830306 
356	 0,1151386088805 
357	 0,112054433719847 
358	 0,134737161403055 
359	 0,157424701241939 
360	 0,163468971516533 
361	 0,104434004651002 
362	 4,77854657848641E-02 
363	 9,75067904028972E-02 
364	 0,124760216011489 
365	 0,113355438048927 
366	 0,104654986892982 
367	 0,106208146702164 
368	 0,117308795840137 
369	 9,09759718536144E-02 
370	 5,30405868021196E-02 
371	 6,67321728658206E-02 
372	 7,54622624255872E-02 
373	 7,06425656851061E-02 
374	 8,71116360035184E-02 
375	 9,71619354950514E-02 
376	 8,37595518824009E-02 
377	 8,69108885722978E-02 
378	 0,101556730179711 
379	 0,106300556505158 
380	 9,73867529317705E-02 
381	 0,079414372957958 
382	 8,76134319198814E-02 
383	 0,096802760770138 
384	 0,084308247856119 
385	 8,24403424040487E-02 
386	 9,22920265713883E-02 
387	 0,102375367979392 
388	 0,108708363274707 
389	 0,106181217806831 
390	 7,90622760560299E-02 
391	 5,77108117151331E-02 
392	 8,08381291828259E-02 
393	 8,45104033773826E-02 
394	 6,90116784354768E-02 
395	 0,080537319016533 
396	 8,39674776571171E-02 
397	 6,69471438518057E-02 
398	 7,25468059521689E-02 
399	 8,51828414662767E-02 
400	 7,52248400575056E-02 
401	 7,39918663171603E-02 
402	 8,32008571632455E-02 
403	 7,82794936274003E-02 
404	 7,54314359213214E-02 
405	 8,39744900986032E-02 
406	 7,91285649791183E-02 
407	 0,070287020124513 
408	 8,42073402002033E-02 
409	 9,15746049480883E-02 
410	 8,59268536257761E-02 
411	 8,12167714763393E-02 
412	 7,51050485134704E-02 
413	 6,55126075473136E-02 
414	 6,77081809816783E-02 
415	 7,80731668705145E-02 
416	 8,27181285098197E-02 
417	 8,04941805820749E-02 
418	 0,072202891077402 
419	 0,066661824837133 
420	 6,50527280983881E-02 
421	 6,77279619484758E-02 
422	 6,90723525001893E-02 
423	 6,88401376266789E-02 
424	 7,14696753472334E-02 
425	 7,39298025711683E-02 
426	 7,42919880459822E-02 
427	 7,24989996912931E-02 
428	 6,96770864909509E-02 
429	 6,74685351534227E-02 
430	 6,71302612187339E-02 
431	 0,068540785205448 
432	 6,90830675534974E-02 
433	 6,97450064898019E-02 
434	 7,14170967461449E-02 
435	 7,30310409576341E-02 
436	 7,36247252938919E-02 
437	 7,14834008325858E-02 
438	 6,83726860179627E-02 
439	 6,55560585876632E-02 
440	 6,46775470025285E-02 
441	 6,60301260906854E-02 
442	 6,97041373248519E-02 
443	 0,071496565572395 
444	 7,09022197325564E-02 
445	 7,01390422307064E-02 
446	 7,00480166648883E-02 
447	 7,09441760951662E-02 
448	 6,99296758014486E-02 
449	 0,069162538971377 
450	 7,36269180157585E-02 
451	 7,52345619781675E-02 
452	 7,28363594221475E-02 
453	 7,40141201742973E-02 
454	 7,43801284332834E-02 
455	 7,00295703705128E-02 
456	 0,0697061653689 
457	 7,22786714470353E-02 
458	 6,98065792997314E-02 
459	 6,89137782875585E-02 
460	 7,15790333304761E-02 
461	 7,17968235279238E-02 
462	 7,16340481647374E-02 
463	 7,45929017610049E-02 
464	 7,42420313385307E-02 
465	 7,06000216071486E-02 
466	 6,91500349394477E-02 
467	 6,97500035121732E-02 
468	 7,19098606746551E-02 
469	 7,19542408552062E-02 
470	 7,13074994697139E-02 
471	 7,41780097687441E-02 
472	 7,49321955380048E-02 
473	 7,31286902249858E-02 
474	 7,62568598990607E-02 
475	 0,078309730986423 
476	 7,34448674805335E-02 
477	 7,17509450832966E-02 
478	 7,31035163446229E-02 
479	 7,09427862503517E-02 
480	 6,98158675350003E-02 
481	 7,14866522009702E-02 
482	 7,31306055467923E-02 
483	 7,35488960064689E-02 
484	 7,15330153877603E-02 
485	 6,93300894607162E-02 
486	 6,83478012569161E-02 
487	 7,07322021700267E-02 
488	 7,38628482715522E-02 
489	 7,54408859053745E-02 
490	 7,42229890633933E-02 
491	 7,15665136066991E-02 
492	 7,09837234617828E-02 
493	 0,070073422870883 
494	 6,85830246005295E-02 
495	 6,92794539952392E-02 
496	 7,05540207618207E-02 
497	 7,04112898800636E-02 
498	 7,03954498461867E-02 
499	 7,06237919735119E-02 
500	 7,02926594075311E-02 
501	 7,05176731727904E-02 
502	 7,17743477260727E-02 
503	 7,26916989463519E-02 
504	 7,26023477186872E-02 
505	 7,04876294864891E-02 
506	 7,05715087995537E-02 
507	 7,30405273940882E-02 
508	 0,072604332093714 
509	 7,16633782132223E-02 
510	 7,25153245486278E-02 
511	 7,32187386254965E-02 
512	 7,35770223672991E-02 
513	 0,074001124621388 
514	 7,45908401854872E-02 
515	 7,51507473203231E-02 
516	 7,41762698864053E-02 
517	 7,27135121741989E-02 
518	 7,23378607126856E-02 
519	 0,073275626105991 
520	 7,50068455757818E-02 
521	 7,55988404783679E-02 
522	 7,53121552891986E-02 
523	 7,45476319940322E-02 
524	 7,52354010076815E-02 
525	 7,66095403695559E-02 
526	 7,62648093554713E-02 
527	 7,56783761583981E-02 
528	 7,54617110000599E-02 
529	 7,61336755772483E-02 
530	 7,66782460620596E-02 
531	 7,59239694160291E-02 
532	 7,48959980250231E-02 
533	 7,41137646753766E-02 
534	 7,42170095725619E-02 
535	 7,49095636932857E-02 
536	 7,58154223499341E-02 
537	 7,54660142787267E-02 
538	 7,46382725545111E-02 
539	 7,51679556937132E-02 
540	 7,53124923497738E-02 
541	 7,47137941297967E-02 
542	 0,074293486635177 
543	 7,40781957509307E-02 
544	 7,40461904222801E-02 
545	 7,41146744600452E-02 
546	 7,43488033633326E-02 
547	 7,51061663495227E-02 
548	 7,54446343694203E-02 
549	 7,50235480626286E-02 
550	 7,50117246447181E-02 
551	 7,54131837233506E-02 
552	 7,60547131041202E-02 
553	 0,076038115965187 
554	 7,53331793982921E-02 
555	 7,49598410412178E-02 
556	 7,49337880704472E-02 
557	 0,075164879625723 
558	 7,45468112255994E-02 
559	 7,34702264045393E-02 
560	 7,33915853728035E-02 
561	 7,35029012744424E-02 
562	 7,34174473995552E-02 
563	 7,27829842155148E-02 
564	 7,21092301133397E-02 
565	 7,20970575776202E-02 
566	 7,23251207908698E-02 
567	 0,072712122504692 
568	 7,34046953977952E-02 
569	 7,39989094589963E-02 
570	 7,42458208303317E-02 
571	 7,47442271508303E-02 
572	 7,53456144921483E-02 
573	 7,54512053603386E-02 
574	 7,59886442796437E-02 
575	 7,71881872150967E-02 
576	 7,85022503402047E-02 
577	 0,079232034265621 
578	 7,87089756489256E-02 
579	 7,90313926629199E-02 
580	 8,03938016301024E-02 
581	 8,18112717597514E-02 
582	 8,27335148443268E-02 
583	 8,29227452953567E-02 
584	 8,34545222544426E-02 
585	 8,44014357565418E-02 
586	 8,57118853990475E-02 
587	 8,59429573338314E-02 
588	 0,08523824911929 
589	 8,64084603177772E-02 
590	 8,78819997651171E-02 
591	 8,80905241708803E-02 
592	 8,77341356433858E-02 
593	 8,73607691857691E-02 
594	 8,80741312225949E-02 
595	 8,87890024744548E-02 
596	 8,90147722820654E-02 
597	 8,92393071482235E-02 
598	 8,93430911253226E-02 
599	 8,90816662411294E-02 
600	 8,88072805594952E-02 
601	 8,85564788159758E-02 
602	 0,087937318985078 
603	 0,087652300043789 
604	 8,81539900684692E-02 
605	 8,79451634195202E-02 
606	 8,71664949602253E-02 
607	 0,086818613837724 
608	 0,086435214582178 
609	 8,58833480439155E-02 
610	 8,52415598725294E-02 
611	 0,084771742061009 
612	 0,084774400236265 
613	 8,42650980225482E-02 
614	 8,34368765427168E-02 
615	 8,38003875564733E-02 
616	 8,42175430887212E-02 
617	 8,39227613817965E-02 
618	 8,29253825563111E-02 
619	 8,22219489012578E-02 
620	 8,38800668636934E-02 
621	 8,46240790555518E-02 
622	 8,37118590607753E-02 
623	 8,33082400798374E-02 
624	 8,34204697421658E-02 
625	 8,38936261904089E-02 
626	 8,40080834887189E-02 
627	 8,37287366920541E-02 
628	 8,33891658406855E-02 
629	 8,35441602987797E-02 
630	 8,43636900989611E-02 
631	 8,47086795494889E-02 
632	 8,46840990020079E-02 
633	 8,46730526652088E-02 
634	 8,50284517300152E-02 
635	 8,57958153601383E-02 
636	 8,65766194350269E-02 
637	 8,74079030544861E-02 
638	 8,82934964974739E-02 
639	 8,87148584785084E-02 
640	 8,89293332694321E-02 
641	 8,98616518691692E-02 
642	 9,06007879233081E-02 
643	 9,08690680948419E-02 
644	 9,13743233007459E-02 
645	 9,19857806717858E-02 
646	 9,24609306574884E-02 
647	 9,20792809796828E-02 
648	 9,10839293388475E-02 
649	 9,09326431272429E-02 
650	 0,090950484169319 
651	 0,090692979840351 
652	 9,05187806389576E-02 
653	 9,02724194260063E-02 
654	 8,95853281560386E-02 
655	 8,86355924989264E-02 
656	 8,75507677441759E-02 
657	 8,66635171768951E-02 
658	 8,55934071592813E-02 
659	 8,39660859301904E-02 
660	 8,28946037997587E-02 
661	 8,22851799949301E-02 
662	 8,11586654963954E-02 
663	 7,98566694768083E-02 
664	 7,86370386360337E-02 
665	 7,80492501970829E-02 
666	 7,78309888571876E-02 
667	 7,74847816380751E-02 
668	 7,69226467506981E-02 
669	 7,62393092152123E-02 
670	 7,60251197202645E-02 
671	 7,57118826743397E-02 
672	 7,49079374867312E-02 
673	 7,47581211192193E-02 
674	 0,075000552645432 
675	 7,45240085327802E-02 
676	 7,40705256169178E-02 
677	 0,073908166152664 
678	 7,39002143073486E-02 
679	 7,41337013417329E-02 
680	 7,47094309059831E-02 
681	 7,49994692083084E-02 
682	 7,50868189261112E-02 
683	 7,57580039044586E-02 
684	 7,64889413327368E-02 
685	 7,70525404879992E-02 
686	 7,81559984079026E-02 
687	 7,98147046416796E-02 
688	 8,18907662201752E-02 
689	 0,084098923865657 
690	 8,64428160702865E-02 
691	 8,93487059799854E-02 
692	 0,092861446892482 
693	 9,70007393846605E-02 
694	 0,101694989456669 
695	 0,106814706491928 
696	 0,112081106156583 
697	 0,117905368459575 
698	 0,124375042952084 
699	 0,130985953508177 
700	 0,137532905109329 
701	 0,143841011070371 
702	 0,150650465305004 
703	 0,157813101159712 
704	 0,164333701580401 
705	 0,170374749278985 
706	 0,176056066277941 
707	 0,181564620185097 
708	 0,186890883688474 
709	 0,19193260809862 
710	 0,196599644441643 
711	 0,200965294207361 
712	 0,20547530178374 
713	 0,209666280922946 
714	 0,213110008690703 
715	 0,216221652686173 
716	 0,21917980971074 
717	 0,222185373493259 
718	 0,2251323731288 
719	 0,227899991153126 
720	 0,230034144484517 
721	 0,232004773363009 
722	 0,234461238736968 
723	 0,23639354652946 
724	 0,237676424546646 
725	 0,238707092643057 
726	 0,239869065488242 
727	 0,241365220353542 
728	 0,242628823430731 
729	 0,243678572427392 
730	 0,244695810027615 
731	 0,24571455547215 
732	 0,246695305105787 
733	 0,247404574282328 
734	 0,248021313324093 
735	 0,248698153780149 
736	 0,249173174492429 
737	 0,249637259000152 
738	 0,250737051445806 
739	 0,251498378443892 
740	 0,251637992628422 
741	 0,251895286836014 
742	 0,252230003421124 
743	 0,252526795662122 
744	 0,252971956899741 
745	 0,253499027557629 
746	 0,253813375858744 
747	 0,253988916869178 
748	 0,254089866920568 
749	 0,254282777935689 
750	 0,254514492088576 
751	 0,254662905091019 
752	 0,254906397252867 
753	 0,255260043897939 
754	 0,255581705908801 
755	 0,25594371278521 
756	 0,256350679361563 
757	 0,256280595997735 
758	 0,256110200895991 
759	 0,256760852757088 
760	 0,257374655818332 
761	 0,257748680317559 
762	 0,258363231116154 
763	 0,258996909270747 
764	 0,259415011549776 
765	 0,259576990089443 
766	 0,259597901078049 
767	 0,259729992101173 
768	 0,260185712622565 
769	 0,260875123418823 
770	 0,260731191206474 
771	 0,260362900709479 
772	 0,260586104308452 
773	 0,261005227300214 
774	 0,261428598770213 
775	 0,261553212797041 
776	 0,261639180577364 
777	 0,261812587998909 
778	 0,261971273510996 
779	 0,261989029426459 
780	 0,261693350125791 
781	 0,261723424159911 
782	 0,262085954112794 
783	 0,262136334778127 
784	 0,26213975474399 
785	 0,262249547439787 
786	 0,262206849009755 
787	 0,262120897523879 
788	 0,262231923599821 
789	 0,262489866341469 
790	 0,262801687705271 
791	 0,262867296718573 
792	 0,262856998797666 
793	 0,262933157170452 
794	 0,263224634372735 
795	 0,263600595536075 
796	 0,263729035317098 
797	 0,263912571534093 
798	 0,264203108655882 
799	 0,264348173227176 
800	 0,264472213450424 
801	 0,264691674440427 
802	 0,264784854706325 
803	 0,264793223119906 
804	 0,264859082125627 
805	 0,265287197868448 
806	 0,26605274062819 
807	 0,266333960247673 
808	 0,266454285041123 
809	 0,266811408608174 
810	 0,267014642684181 
811	 0,267041755347788 
812	 0,267041932440931 
813	 0,267016765417777 
814	 0,266994850456318 
815	 0,267036830027988 
816	 0,267187919566068 
817	 0,267489316709023 
818	 0,267958105697185 
819	 0,268333301533102 
820	 0,267813129842629 
821	 0,267533362152077 
822	 0,267991350561241 
823	 0,268468370382194 
824	 0,26887621160539 
825	 0,269198197513063 
826	 0,269436894760111 
827	 0,269574984271898 
828	 0,269472451072598 
829	 0,269792336284095 
830	 0,270672234623398 
831	 0,270545130124641 
832	 0,269930945561623 
833	 0,269768088985291 
834	 0,270622199099689 
835	 0,27205728515609 
836	 0,272217390590414 
837	 0,271985919799536 
838	 0,271910404746297 
839	 0,272280121129157 
840	 0,272662108601733 
841	 0,27240176741707 
842	 0,272017960978746 
843	 0,271824410831156 
844	 0,272366123005783 
845	 0,272897598814754 
846	 0,272989449811093 
847	 0,272870605519708 
848	 0,272755525614329 
849	 0,27290197551089 
850	 0,273284410210652 
851	 0,273597835804399 
852	 0,272872598861956 
853	 0,27223930661712 
854	 0,272316557561565 
855	 0,272686572357335 
856	 0,272991261969585 
857	 0,272820658067245 
858	 0,272680871886941 
859	 0,272626347804222 
860	 0,272358011003726 
861	 0,272287584766076 
862	 0,272557833806578 
863	 0,272533463591604 
864	 0,27255025575738 
865	 0,273115239818596 
866	 0,273764725615478 
867	 0,274261855584368 
868	 0,274325713586407 
869	 0,274114373623671 
870	 0,273784886909815 
871	 0,273641953475067 
872	 0,273862355809807 
873	 0,274588929041317 
874	 0,275505598128906 
875	 0,276298802568747 
876	 0,276323058015333 
877	 0,276609875738878 
878	 0,277425258424312 
879	 0,27749486277171 
880	 0,277524120279343 
881	 0,278307159776536 
882	 0,278352723048419 
883	 0,2778746615739 
884	 0,27812163619505 
885	 0,278943323664722 
886	 0,280123249794606 
887	 0,280818155424269 
888	 0,280913431692023 
889	 0,280441344633908 
890	 0,280448363982021 
891	 0,280697437926718 
892	 0,280144425387301 
893	 0,280017454041486 
894	 0,28055008001426 
895	 0,281025183074305 
896	 0,280765810685061 
897	 0,27947563708689 
898	 0,279349953681282 
899	 0,280107284194447 
900	 0,280627505691573 
901	 0,280602947833328 
902	 0,280051887514574 
903	 0,279500775219958 
904	 0,279478678905653 
905	 0,280141550079657 
906	 0,28004346870278 
907	 0,279522855011612 
908	 0,279327847326105 
909	 0,279138968004511 
910	 0,278990969879877 
911	 0,279119048718073 
912	 0,279572271205006 
913	 0,280194571059862 
914	 0,279936803001678 
915	 0,27972893792317 
916	 0,280624557434422 
917	 0,280909027841799 
918	 0,28073720226279 
919	 0,281507738424604 
920	 0,281584062229205 
921	 0,28070113903717 
922	 0,280335542115094 
923	 0,280537247454709 
924	 0,281284653983253 
925	 0,28265338871622 
926	 0,283559272933171 
927	 0,282108923343623 
928	 0,281606001616451 
929	 0,282552240644427 
930	 0,283022698541341 
931	 0,282891786266475 
932	 0,282227010066851 
933	 0,282109489829475 
934	 0,282433033509881 
935	 0,282881004965715 
936	 0,283782818372492 
937	 0,284561315069916 
938	 0,283428503720156 
939	 0,282753301560439 
940	 0,283256673866721 
941	 0,283281980330267 
942	 0,283603322718557 
943	 0,284751793997236 
944	 0,284157956289618 
945	 0,282636624388859 
946	 0,282460195176616 
947	 0,282765979236664 
948	 0,282915315424013 
949	 0,281409678057823 
950	 0,279998449481032 
951	 0,279819113390754 
952	 0,281050455648875 
953	 0,281810418650825 
954	 0,279989770995757 
955	 0,279037291424481 
956	 0,279587078251389 
957	 0,281540559872185 
958	 0,281258406818176 
959	 0,278417682630149 
960	 0,278019943519167 
961	 0,278980867453858 
962	 0,280098648358431 
963	 0,279840146107947 
964	 0,278845416069124 
965	 0,278473929961784 
966	 0,278042998240131 
967	 0,277811293304967 
968	 0,279050036083072 
969	 0,279823136824969 
970	 0,27940763204062 
971	 0,279039447259897 
972	 0,27850079249518 
973	 0,277690210689442 
974	 0,278618404099546 
975	 0,27955870361347 
976	 0,276807645758199 
977	 0,27704775560809 
978	 0,280310978350601 
979	 0,279982868711617 
980	 0,279245082564977 
981	 0,279751828500849 
982	 0,281636570498899 
983	 0,282886018062876 
984	 0,281721861072871 
985	 0,282007091783738 
986	 0,283171783310309 
987	 0,282618818654698 
988	 0,283462466463652 
989	 0,285433429854059 
990	 0,284140059584966 
991	 0,283838880011638 
992	 0,286078710751742 
993	 0,285471946103314 
994	 0,285198269149852 
995	 0,28843698135363 
996	 0,287062711833101 
997	 0,283389829650245 
998	 0,284748246141401 
999	 0,286283893256467 
1000	 0,287194456742391 
1001	 0,289461138155169 
1002	 0,291829858959033 
1003	 0,29347514851758 
1004	 0,293990307722652 
1005	 0,292953100228517 
1006	 0,290355647299554 
1007	 0,289394964574486 
1008	 0,290581237442156 
1009	 0,293608556868455 
1010	 0,296482326402967 
1011	 0,297605418325211 
1012	 0,293969739883444 
1013	 0,291842662035348 
1014	 0,293530253346046 
1015	 0,294717295413882 
1016	 0,294455769647934 
1017	 0,292544066560176 
1018	 0,292583310331842 
1019	 0,294892587273289 
1020	 0,298927116771981 
1021	 0,296902336650047 
1022	 0,291926585467068 
1023	 0,298217155392546 
1024	 0,302635286178053 
1025	 0,30104637437758 
1026	 0,296102904883454 
1027	 0,295547333550222 
1028	 0,302671267181438 
1029	 0,302329607058448 
1030	 0,299362116502093 
1031	 0,301079275216297 
1032	 0,301872601039384 
1033	 0,301956559811423 
1034	 0,303626911318502 
1035	 0,3073562519469 
1036	 0,310978078836963 
1037	 0,306398108381549 
1038	 0,30325466222717 
1039	 0,304682618613144 
1040	 0,30169381209314 
1041	 0,297598875623037 
1042	 0,295806171785354 
1043	 0,296080038810782 
1044	 0,298979526892947 
1045	 0,304844945632326 
1046	 0,307938905149994 
1047	 0,30884412514258 
1048	 0,311991819462957 
1049	 0,316408780862473 
1050	 0,320127482681162 
1051	 0,31584191639472 
1052	 0,308421033936639 
1053	 0,302603474052909 
1054	 0,30838294734318 
1055	 0,317618534618439 
1056	 0,321580265194376 
1057	 0,316114117386538 
1058	 0,309377091666137 
1059	 0,313956163478677 
1060	 0,322294062867361 
1061	 0,326577008658335 
1062	 0,313322035417337 
1063	 0,310055974859119 
1064	 0,320186860808214 
1065	 0,323012121214797 
1066	 0,321881768954086 
1067	 0,317778799679531 
1068	 0,307893745641055 
1069	 0,305586293164624 
1070	 0,31880970405807 
1071	 0,324744271471625 
1072	 0,324755672085802 
1073	 0,323668727796507 
1074	 0,327552030640462 
1075	 0,330578664585319 
