Wavelength	SCORFF200184.asd
325	 0,47188494172294 
326	 0,56664252312697 
327	 0,590587380747801 
328	 0,514928098801505 
329	 0,562689023363093 
330	 0,606568497562099 
331	 0,551406636762285 
332	 0,429554242323891 
333	 0,363092706223231 
334	 0,55792563873703 
335	 0,585715428332748 
336	 0,387907667620782 
337	 0,378837676541477 
338	 0,401616259810599 
339	 0,309295380900947 
340	 0,324593764660724 
341	 0,384207383304572 
342	 0,300060078974041 
343	 0,300545558864665 
344	 0,401417580740703 
345	 0,391057639898256 
346	 0,331259654339879 
347	 0,288474575195679 
348	 0,261605064421495 
349	 0,255430739165421 
350	 0,277267058779734 
351	 0,308542028658468 
352	 0,32772224759272 
353	 0,312757573162159 
354	 0,289966532403414 
355	 0,289577372039605 
356	 0,279738403870231 
357	 0,267148134106499 
358	 0,284831506857172 
359	 0,297298320749439 
360	 0,286876075494091 
361	 0,235834686995463 
362	 0,202121129781215 
363	 0,267820280669986 
364	 0,310737686543353 
365	 0,314997647989944 
366	 0,31692055859417 
367	 0,308165696477071 
368	 0,287554799404178 
369	 0,280204488372329 
370	 0,284189258668844 
371	 0,289634147877725 
372	 0,295071298963983 
373	 0,298279736864952 
374	 0,294098414487409 
375	 0,290334290725578 
376	 0,292206990075034 
377	 0,293261585158739 
378	 0,293826368288049 
379	 0,299226408225414 
380	 0,288209284600597 
381	 0,26334734788097 
382	 0,27803914484852 
383	 0,292408460429591 
384	 0,271192172201897 
385	 0,270529879595113 
386	 0,289125535725065 
387	 0,297714955842473 
388	 0,303810455391223 
389	 0,306220715851968 
390	 0,287185270296994 
391	 0,269324997967829 
392	 0,282106652614192 
393	 0,285314224190813 
394	 0,276514287716533 
395	 0,276712912960242 
396	 0,27354784621204 
397	 0,263217351377218 
398	 0,26517650881668 
399	 0,273945093986298 
400	 0,279325843931666 
401	 0,27532194440096 
402	 0,264215884146634 
403	 0,257922062605596 
404	 0,263916990532289 
405	 0,282969425286109 
406	 0,276840411627499 
407	 0,258714728867463 
408	 0,266255036350528 
409	 0,271698941391617 
410	 0,268988330380816 
411	 0,270044039001755 
412	 0,268746704423817 
413	 0,259838091876978 
414	 0,261588977173264 
415	 0,270244823381906 
416	 0,268979553845677 
417	 0,264529771142362 
418	 0,260127643516621 
419	 0,257131204827825 
420	 0,256619367175741 
421	 0,259694803846879 
422	 0,262232230142276 
423	 0,263091609733678 
424	 0,262246126476568 
425	 0,262664077627047 
426	 0,265630415160951 
427	 0,266016717988891 
428	 0,263948914509451 
429	 0,260498341793695 
430	 0,260714277564749 
431	 0,264796314475259 
432	 0,266587767194553 
433	 0,26613437504346 
434	 0,263941094533206 
435	 0,263066688182138 
436	 0,2638087042143 
437	 0,265418637173878 
438	 0,266339516575254 
439	 0,265978157631668 
440	 0,265654323800469 
441	 0,265447756979513 
442	 0,265274966876573 
443	 0,266599974538363 
444	 0,268898418922681 
445	 0,269778307235405 
446	 0,26849708635196 
447	 0,265159055788474 
448	 0,264270803331006 
449	 0,26645563957637 
450	 0,271740354051872 
451	 0,275772368896526 
452	 0,276551696092668 
453	 0,272746804695664 
454	 0,269751718713295 
455	 0,27223491202184 
456	 0,273013495496315 
457	 0,271145542336403 
458	 0,267313934265414 
459	 0,267365622795845 
460	 0,272435114804458 
461	 0,272012815810382 
462	 0,269346050941744 
463	 0,270086017011375 
464	 0,270543666041498 
465	 0,270162866667186 
466	 0,269875583667101 
467	 0,270352439994521 
468	 0,271890846129934 
469	 0,273157451984246 
470	 0,273593809014535 
471	 0,272525974908132 
472	 0,271391413680408 
473	 0,270677701901606 
474	 0,269562914821864 
475	 0,269712854211965 
476	 0,272551202377736 
477	 0,273010367295015 
478	 0,270963265982764 
479	 0,268972088225017 
480	 0,267655443336758 
481	 0,26745053300582 
482	 0,26806625966552 
483	 0,269370604330812 
484	 0,271413276515752 
485	 0,270287089540738 
486	 0,266692970679125 
487	 0,267022808291341 
488	 0,269318679892379 
489	 0,271723448053505 
490	 0,272338924471872 
491	 0,271469070425794 
492	 0,270738865281585 
493	 0,26930370156577 
494	 0,267254923742256 
495	 0,265747708634101 
496	 0,265769483172894 
497	 0,268223380893061 
498	 0,269958751175371 
499	 0,270178752495011 
500	 0,269097667153801 
501	 0,267874857267875 
502	 0,267366328173429 
503	 0,268130376560898 
504	 0,269555106533614 
505	 0,27048205404378 
506	 0,271643905031654 
507	 0,272692855704172 
508	 0,271373554861745 
509	 0,270042650542171 
510	 0,270778907707984 
511	 0,270585957899925 
512	 0,269881030828984 
513	 0,271378722389263 
514	 0,272105807759292 
515	 0,271107338521395 
516	 0,271269277113558 
517	 0,271722273402743 
518	 0,270843940886661 
519	 0,270596821168174 
520	 0,271245631610541 
521	 0,271895578196237 
522	 0,272131896410472 
523	 0,271809584368779 
524	 0,272727721971961 
525	 0,27425254919726 
526	 0,274430512483462 
527	 0,274104807767615 
528	 0,273647572298407 
529	 0,273606803250844 
530	 0,27342657569933 
531	 0,272441476816471 
532	 0,272246779442779 
533	 0,272838826006097 
534	 0,272965843584704 
535	 0,273227830271961 
536	 0,273851356724041 
537	 0,27385895678908 
538	 0,273237673475539 
539	 0,272037195849509 
540	 0,272184172918741 
541	 0,273783381311308 
542	 0,274183295943046 
543	 0,274056353546339 
544	 0,27420555155526 
545	 0,274662246541527 
546	 0,275374868883685 
547	 0,276242353122418 
548	 0,276574921925164 
549	 0,276152213231266 
550	 0,276106376037613 
551	 0,276364520605541 
552	 0,276580637407096 
553	 0,277046926476745 
554	 0,277624073418469 
555	 0,277557137923729 
556	 0,27726041087373 
557	 0,277097279008739 
558	 0,276944237859653 
559	 0,276705634808786 
560	 0,276067013639095 
561	 0,275906251938074 
562	 0,276449352881243 
563	 0,276679121784549 
564	 0,276569120646338 
565	 0,276217486740164 
566	 0,276274875213685 
567	 0,276808821020304 
568	 0,277332712727814 
569	 0,277986845420068 
570	 0,278775462161994 
571	 0,27868912459901 
572	 0,278529931866823 
573	 0,280417371410627 
574	 0,282036275435471 
575	 0,282665259565398 
576	 0,283280623480955 
577	 0,283932905959844 
578	 0,284619321379082 
579	 0,285788101798803 
580	 0,287171574275967 
581	 0,287650537122634 
582	 0,288087193402712 
583	 0,288908491764228 
584	 0,289329568660989 
585	 0,289542186426783 
586	 0,290105337842091 
587	 0,289989866761743 
588	 0,289358912172882 
589	 0,290241896799836 
590	 0,291631921336752 
591	 0,292472580260985 
592	 0,292541287777711 
593	 0,292287799261378 
594	 0,293127778665533 
595	 0,293819436914314 
596	 0,293847162549741 
597	 0,293924172929803 
598	 0,294071849413051 
599	 0,294221264142182 
600	 0,293994833640311 
601	 0,293480319588073 
602	 0,293384910739676 
603	 0,293577449611526 
604	 0,293906925784603 
605	 0,294158873911161 
606	 0,293963146705044 
607	 0,292442703744207 
608	 0,291346376087811 
609	 0,291270415691107 
610	 0,291121963917018 
611	 0,290938544372436 
612	 0,290881980329821 
613	 0,290017031740136 
614	 0,288722999537247 
615	 0,288982361247279 
616	 0,289497510853442 
617	 0,289392110144831 
618	 0,288776341074797 
619	 0,288180203363086 
620	 0,288672967115907 
621	 0,288828834387214 
622	 0,288292611883809 
623	 0,287783291749775 
624	 0,287586986662833 
625	 0,287928570755739 
626	 0,288179047304456 
627	 0,288301910502387 
628	 0,288692288505826 
629	 0,288890150550871 
630	 0,288759212741827 
631	 0,289124548469893 
632	 0,289750883637384 
633	 0,290110515598692 
634	 0,290251701274054 
635	 0,290397524785293 
636	 0,291476384271351 
637	 0,29241607473246 
638	 0,292354092906245 
639	 0,292634838184751 
640	 0,293365971168506 
641	 0,294194996506449 
642	 0,294924531473203 
643	 0,295447116815319 
644	 0,29589755081057 
645	 0,296192041529603 
646	 0,296215821588731 
647	 0,295837873769021 
648	 0,29519925485582 
649	 0,294848554222758 
650	 0,294536731201484 
651	 0,294064472796776 
652	 0,293272130524501 
653	 0,292223901406134 
654	 0,291097995159341 
655	 0,289954138431836 
656	 0,288903636336185 
657	 0,288315602286943 
658	 0,287602824287236 
659	 0,286165615055446 
660	 0,284767694336688 
661	 0,283598583243277 
662	 0,282704625796395 
663	 0,281644760637095 
664	 0,280295515269109 
665	 0,279517284127156 
666	 0,279110397223563 
667	 0,278603074932865 
668	 0,278212431507162 
669	 0,277839880219712 
670	 0,276880928186984 
671	 0,276175814700085 
672	 0,276356205457231 
673	 0,276459786242872 
674	 0,276372337309552 
675	 0,276239539853269 
676	 0,276229346144493 
677	 0,276380622496031 
678	 0,27638459117569 
679	 0,276609408490077 
680	 0,27750168173231 
681	 0,27810374388798 
682	 0,2783185283022 
683	 0,278605365154946 
684	 0,279068271907276 
685	 0,279815946896192 
686	 0,280977728728312 
687	 0,282503186020806 
688	 0,284268391415581 
689	 0,286292765050704 
690	 0,288634691405303 
691	 0,291487184801489 
692	 0,294805599423181 
693	 0,298569515464368 
694	 0,303195087032134 
695	 0,30849758675917 
696	 0,313772409303742 
697	 0,31975260822109 
698	 0,326636476105004 
699	 0,333643769538978 
700	 0,340973113077555 
701	 0,348984032336839 
702	 0,357166612653345 
703	 0,36525460993567 
704	 0,373006446947507 
705	 0,380541320750008 
706	 0,387939480329102 
707	 0,39523332425977 
708	 0,40236970467427 
709	 0,409243483360085 
710	 0,415595002196111 
711	 0,421391514205929 
712	 0,426867322209083 
713	 0,432092559713418 
714	 0,437113850669873 
715	 0,441830256450797 
716	 0,446158119834059 
717	 0,44994117982989 
718	 0,453446811722632 
719	 0,456793174166673 
720	 0,45982847631541 
721	 0,462757910422012 
722	 0,465859177927881 
723	 0,468341162534258 
724	 0,470221730769815 
725	 0,472188025713137 
726	 0,474269685510907 
727	 0,476411183679684 
728	 0,477928697485537 
729	 0,479068629383768 
730	 0,480452623753862 
731	 0,481630140264165 
732	 0,482561291549966 
733	 0,483613307578869 
734	 0,484719972575206 
735	 0,485783629939379 
736	 0,486431653375977 
737	 0,486898895538876 
738	 0,48801086060004 
739	 0,488711044193461 
740	 0,488763288341595 
741	 0,489236446334551 
742	 0,489956652869792 
743	 0,490616760553855 
744	 0,491229681724266 
745	 0,491676232004098 
746	 0,491590384149992 
747	 0,491696472193616 
748	 0,492310066320835 
749	 0,492572716720219 
750	 0,492718204265889 
751	 0,49326854560507 
752	 0,493625356833087 
753	 0,493790829051745 
754	 0,494407032137285 
755	 0,495080660617553 
756	 0,495511770012521 
757	 0,495775367648328 
758	 0,496060495027149 
759	 0,496739637631162 
760	 0,497319051315846 
761	 0,497640686824792 
762	 0,497795072131157 
763	 0,49808412192397 
764	 0,498753975707549 
765	 0,499175937282726 
766	 0,499364431839558 
767	 0,49972113883696 
768	 0,499894168131955 
769	 0,499859157184988 
770	 0,500289105077571 
771	 0,500751925406762 
772	 0,500688540661593 
773	 0,500800677264604 
774	 0,501183025209162 
775	 0,501722710836156 
776	 0,501706124214511 
777	 0,500939140985942 
778	 0,500977504146126 
779	 0,501287838144984 
780	 0,500825675071156 
781	 0,50050281389615 
782	 0,50047453537691 
783	 0,500320830423735 
784	 0,500561038143138 
785	 0,501385436640911 
786	 0,501389739778722 
787	 0,500991237901408 
788	 0,501326250235483 
789	 0,501233628895127 
790	 0,500694442039781 
791	 0,501094126615769 
792	 0,501460009032979 
793	 0,501088776102658 
794	 0,501446481161205 
795	 0,502288592264429 
796	 0,502626057864605 
797	 0,502610781952967 
798	 0,502402760273825 
799	 0,50261839197499 
800	 0,502981070751515 
801	 0,503184926886803 
802	 0,503110086518077 
803	 0,502940456234899 
804	 0,503208259288031 
805	 0,503468250984694 
806	 0,503597009157793 
807	 0,503848435080896 
808	 0,504188807033344 
809	 0,504551963137546 
810	 0,504700394831193 
811	 0,504700543971528 
812	 0,504937536809112 
813	 0,504874726428497 
814	 0,504438650533154 
815	 0,504603142383253 
816	 0,504928694546952 
817	 0,504811318987584 
818	 0,505054307141364 
819	 0,505569015475299 
820	 0,505556785158287 
821	 0,505535607737542 
822	 0,505744561587722 
823	 0,506013003068793 
824	 0,506355396497351 
825	 0,506803410498317 
826	 0,507049253996495 
827	 0,507118012582205 
828	 0,507323072580573 
829	 0,507629834888199 
830	 0,508042726152645 
831	 0,50876802655761 
832	 0,509143827048664 
833	 0,508283322382841 
834	 0,508502936777185 
835	 0,509779877203546 
836	 0,510075370004457 
837	 0,509969050406819 
838	 0,509834055986366 
839	 0,5101332022607 
840	 0,510456499511952 
841	 0,510154309542392 
842	 0,509848249304758 
843	 0,509714239059819 
844	 0,509748513007579 
845	 0,509888001086873 
846	 0,510021758079044 
847	 0,509776231793425 
848	 0,50919843502348 
849	 0,508420139720789 
850	 0,508654919090831 
851	 0,509540288572455 
852	 0,508842128118049 
853	 0,507922944173087 
854	 0,507599662369684 
855	 0,508000613642168 
856	 0,50853343356863 
857	 0,50837854218768 
858	 0,507844718499531 
859	 0,507223588185315 
860	 0,507127394249262 
861	 0,507280295629641 
862	 0,507545994737999 
863	 0,508037121857807 
864	 0,50848982806956 
865	 0,508572821341334 
866	 0,508802967610527 
867	 0,509247013476011 
868	 0,50971541614106 
869	 0,51015469463878 
870	 0,510486514560046 
871	 0,510457061191144 
872	 0,510483956541243 
873	 0,511064394210974 
874	 0,511318245714577 
875	 0,511408016075073 
876	 0,512400610362168 
877	 0,513255593101824 
878	 0,51360794768138 
879	 0,514154470831954 
880	 0,514746053087475 
881	 0,515146824156497 
882	 0,514965270099438 
883	 0,51455218469666 
884	 0,515031942727085 
885	 0,515411984126395 
886	 0,515438659021575 
887	 0,515807497825085 
888	 0,516042243973291 
889	 0,515702092372112 
890	 0,515414071118007 
891	 0,515264505180462 
892	 0,515184594424489 
893	 0,514865865772511 
894	 0,514520960765271 
895	 0,515586462659228 
896	 0,516505597965055 
897	 0,516028354766256 
898	 0,514844137907967 
899	 0,51375080832389 
900	 0,513897440650266 
901	 0,514439084476597 
902	 0,514818035713558 
903	 0,513970129190828 
904	 0,513362698219766 
905	 0,513799258367839 
906	 0,513786369792307 
907	 0,513755744128325 
908	 0,514556849029184 
909	 0,514476806872169 
910	 0,513546854702277 
911	 0,51325746985557 
912	 0,51287645520373 
913	 0,512337045209941 
914	 0,513208265147842 
915	 0,514218157404588 
916	 0,513880739232255 
917	 0,513801308583954 
918	 0,514106635642898 
919	 0,5142820881421 
920	 0,514515234793152 
921	 0,514713759313506 
922	 0,514121824408665 
923	 0,514049985326604 
924	 0,515415653620646 
925	 0,515837960760328 
926	 0,515380884656801 
927	 0,514891590916443 
928	 0,514334982614912 
929	 0,514058996796301 
930	 0,515189985358187 
931	 0,515980375182988 
932	 0,515564989259754 
933	 0,515860558136066 
934	 0,51619565349456 
935	 0,515506555569595 
936	 0,515972960292078 
937	 0,51698949443865 
938	 0,515302942252869 
939	 0,514683705954914 
940	 0,516056706893682 
941	 0,516241635736963 
942	 0,515477893330267 
943	 0,514292434819385 
944	 0,514205155439625 
945	 0,514689953492367 
946	 0,514262145665303 
947	 0,513664601620554 
948	 0,513094395044565 
949	 0,512607027330916 
950	 0,511741669960086 
951	 0,510315417422645 
952	 0,508781649168839 
953	 0,507930309895582 
954	 0,508535793333206 
955	 0,508787262091045 
956	 0,508414393639677 
957	 0,507989376750036 
958	 0,506496048903932 
959	 0,504463910320153 
960	 0,505723248102965 
961	 0,507112458669044 
962	 0,50615792903058 
963	 0,504228088857575 
964	 0,502980496591504 
965	 0,504538183463684 
966	 0,504528756375511 
967	 0,502865505967088 
968	 0,503029712787569 
969	 0,502622103843595 
970	 0,501288033886676 
971	 0,50267458587583 
972	 0,50411603961687 
973	 0,503159259059243 
974	 0,502529436938963 
975	 0,50257670767359 
976	 0,503060300418199 
977	 0,503934965772066 
978	 0,50483010251485 
979	 0,504551408149121 
980	 0,504930440570278 
981	 0,506700940623335 
982	 0,508628316578138 
983	 0,508852314713599 
984	 0,506031173447967 
985	 0,505224289121164 
986	 0,506659773798453 
987	 0,508861254104096 
988	 0,508677290744345 
989	 0,506591714956699 
990	 0,50818588987737 
991	 0,509952578191839 
992	 0,510217485534185 
993	 0,510614790712506 
994	 0,511922003019442 
995	 0,51446461077609 
996	 0,513609133429901 
997	 0,510831622951758 
998	 0,510611800223574 
999	 0,512154450207129 
1000	 0,514406561698699 
1001	 0,51411501873878 
1002	 0,514375442625431 
1003	 0,516206569099824 
1004	 0,515977183700541 
1005	 0,51474110194802 
1006	 0,513873663338065 
1007	 0,513194938184069 
1008	 0,513970002523128 
1009	 0,518324298594389 
1010	 0,5200166262204 
1011	 0,518527782169562 
1012	 0,518108523894085 
1013	 0,518750756842998 
1014	 0,520249426816461 
1015	 0,521412353145407 
1016	 0,519766883223657 
1017	 0,514514448965369 
1018	 0,516457007323261 
1019	 0,5217067550313 
1020	 0,522160108397482 
1021	 0,521806004922965 
1022	 0,521773480783651 
1023	 0,522882055656943 
1024	 0,523502221684835 
1025	 0,523441564455406 
1026	 0,524679927168575 
1027	 0,525272318959924 
1028	 0,524305233077186 
1029	 0,524942094179435 
1030	 0,526345341422194 
1031	 0,527225929761488 
1032	 0,529491347587782 
1033	 0,531554485686737 
1034	 0,529566282461909 
1035	 0,530367503846602 
1036	 0,533552981384088 
1037	 0,530456873119253 
1038	 0,52745827442023 
1039	 0,526872953662999 
1040	 0,523807035817673 
1041	 0,522459560817825 
1042	 0,526164904727722 
1043	 0,531744185906534 
1044	 0,533604637311916 
1045	 0,525672878161402 
1046	 0,52718243685426 
1047	 0,536578041863386 
1048	 0,539064601363859 
1049	 0,541426715081355 
1050	 0,543061723694799 
1051	 0,533302197675302 
1052	 0,529758901524365 
1053	 0,538104154593903 
1054	 0,536192633202325 
1055	 0,535772630839558 
1056	 0,545985142447513 
1057	 0,547580928641906 
1058	 0,542306879651533 
1059	 0,536924306358327 
1060	 0,538102244919445 
1061	 0,542348985967253 
1062	 0,53790926089631 
1063	 0,537923512208541 
1064	 0,543885622608719 
1065	 0,547023506566486 
1066	 0,545076908057326 
1067	 0,539451660024049 
1068	 0,542092259771476 
1069	 0,551483323510663 
1070	 0,561567113353389 
1071	 0,550395992382055 
1072	 0,535225234144913 
1073	 0,537551306927125 
1074	 0,533320906056834 
1075	 0,529799292587467 
