Wavelength	SCORFF200035.asd
325	 3,26222708908142E-02 
326	 0,183103334349903 
327	 0,213781435189696 
328	 0,115591192350924 
329	 0,179687196299224 
330	 0,228802746710486 
331	 0,135167803787051 
332	 5,63458784789108E-02 
333	 5,23649288899932E-02 
334	 0,172828573022426 
335	 0,235559683088422 
336	 0,171744441553185 
337	 0,113346777038745 
338	 0,060273787958313 
339	 4,94015661732003E-02 
340	 8,06553077152727E-02 
341	 0,115084944209076 
342	 9,88841821080841E-02 
343	 8,40727393115213E-02 
344	 8,86762958343697E-02 
345	 0,108665288880814 
346	 0,112024261376969 
347	 0,07008279810862 
348	 0,109343944202459 
349	 0,182343717668698 
350	 0,134803447120575 
351	 8,85190116213472E-02 
352	 9,70523280755352E-02 
353	 0,110427464388256 
354	 0,113617630604368 
355	 0,091797521147077 
356	 7,31947181487043E-02 
357	 6,99211987240975E-02 
358	 0,088516491814791 
359	 8,76112669931435E-02 
360	 5,30747713224462E-02 
361	 2,64383791603509E-02 
362	 3,01095864488362E-02 
363	 8,41608193752829E-02 
364	 0,087543995623482 
365	 5,13762938099347E-02 
366	 9,92972339562759E-02 
367	 0,126552191520484 
368	 7,74876433457614E-02 
369	 4,00094566974772E-02 
370	 2,85639728508424E-02 
371	 5,19685872580365E-02 
372	 5,58615524840766E-02 
373	 3,63073486815624E-02 
374	 4,92001463011409E-02 
375	 0,067489768611459 
376	 7,17754761521979E-02 
377	 7,36722255116397E-02 
378	 7,52953614671415E-02 
379	 8,02308247862134E-02 
380	 6,86141472477201E-02 
381	 4,28696797944086E-02 
382	 5,09575738612859E-02 
383	 6,74767105320482E-02 
384	 0,068017696028961 
385	 6,89683147556556E-02 
386	 7,19653744110977E-02 
387	 7,58437178614827E-02 
388	 7,24300054919083E-02 
389	 5,99070923232867E-02 
390	 4,28570338515851E-02 
391	 3,35056109965324E-02 
392	 4,67915442630339E-02 
393	 5,31780232367813E-02 
394	 5,16327464916155E-02 
395	 6,16746010040375E-02 
396	 6,13478748355387E-02 
397	 4,38490777115734E-02 
398	 4,21752867317155E-02 
399	 4,79465752965375E-02 
400	 4,32537448916641E-02 
401	 3,69126644972405E-02 
402	 3,30896112624093E-02 
403	 3,64667499073867E-02 
404	 4,60374399632274E-02 
405	 5,85650876970702E-02 
406	 5,52208013020612E-02 
407	 4,40417403051869E-02 
408	 4,57734651481323E-02 
409	 5,09466030677615E-02 
410	 5,55184906702795E-02 
411	 5,51706643669134E-02 
412	 5,09971805833353E-02 
413	 4,46295800339457E-02 
414	 4,32533778490678E-02 
415	 4,54493739759353E-02 
416	 4,43013248115169E-02 
417	 4,18890366923888E-02 
418	 0,039570227137657 
419	 4,04789612264429E-02 
420	 4,11336203724949E-02 
421	 3,67750616682946E-02 
422	 3,88259680088431E-02 
423	 4,55357564426737E-02 
424	 4,26571542980492E-02 
425	 4,08619791439156E-02 
426	 0,045304945378917 
427	 4,22121484240128E-02 
428	 3,56930244906813E-02 
429	 3,58324666492912E-02 
430	 3,85279947999435E-02 
431	 4,17460616671482E-02 
432	 4,19155848381159E-02 
433	 4,18559748434401E-02 
434	 4,39999559628971E-02 
435	 4,47604447834761E-02 
436	 4,36295334374558E-02 
437	 4,02425928171788E-02 
438	 4,02365859696441E-02 
439	 4,46514264562133E-02 
440	 4,38612770169578E-02 
441	 4,17633520257049E-02 
442	 4,43048173993093E-02 
443	 4,39144189144189E-02 
444	 4,07228421413575E-02 
445	 4,12900836404261E-02 
446	 0,041673687345419 
447	 3,97986823637075E-02 
448	 3,99379671252405E-02 
449	 4,11090706006572E-02 
450	 4,03366407815195E-02 
451	 4,05563841411378E-02 
452	 4,23568578924237E-02 
453	 4,44208065178096E-02 
454	 4,53140196069333E-02 
455	 4,39252774400062E-02 
456	 4,29682432157484E-02 
457	 4,26325792223345E-02 
458	 4,14294011617678E-02 
459	 4,21393071623278E-02 
460	 4,51098930375979E-02 
461	 4,46717112774762E-02 
462	 4,34945605927322E-02 
463	 4,58497780388347E-02 
464	 4,48850198846725E-02 
465	 4,05825131341392E-02 
466	 3,82825364676678E-02 
467	 3,94951558351245E-02 
468	 4,43301180221326E-02 
469	 4,45100765831438E-02 
470	 4,19170883779415E-02 
471	 4,27911980359887E-02 
472	 4,31952993064857E-02 
473	 4,26392831125146E-02 
474	 0,044758311277138 
475	 4,61427326062524E-02 
476	 4,34546437080887E-02 
477	 4,04663691609259E-02 
478	 0,038855725469171 
479	 4,09973353167869E-02 
480	 4,23293521244404E-02 
481	 4,10083504229691E-02 
482	 4,09126614329289E-02 
483	 0,04152050278821 
484	 4,14380727984708E-02 
485	 0,042019603362054 
486	 0,042736093204792 
487	 4,00674852862425E-02 
488	 3,86822495098698E-02 
489	 4,17026148924033E-02 
490	 4,22796109955774E-02 
491	 4,08021831128477E-02 
492	 4,08107528171206E-02 
493	 0,040552124387899 
494	 3,96500837283978E-02 
495	 3,88379051006958E-02 
496	 3,86096190822078E-02 
497	 0,039421421666548 
498	 4,03455067891052E-02 
499	 4,07967072380037E-02 
500	 0,039797521013588 
501	 3,89039548684494E-02 
502	 3,89632412608684E-02 
503	 3,88411864497914E-02 
504	 3,88309596035286E-02 
505	 3,96507428643837E-02 
506	 4,10162601828313E-02 
507	 4,24034539827086E-02 
508	 4,23101781309237E-02 
509	 4,12442217427641E-02 
510	 3,98740821191833E-02 
511	 4,02606555783391E-02 
512	 4,18914745022366E-02 
513	 4,25047199558059E-02 
514	 4,24677760697664E-02 
515	 4,20594756405293E-02 
516	 4,23628383913428E-02 
517	 4,28436061931629E-02 
518	 4,25920052012671E-02 
519	 4,25606800717738E-02 
520	 4,28570810996931E-02 
521	 4,30467700065286E-02 
522	 4,27924400258067E-02 
523	 4,19553631212112E-02 
524	 4,16330013928511E-02 
525	 4,19426136010408E-02 
526	 4,28225089441062E-02 
527	 4,32622437619668E-02 
528	 0,042950736053878 
529	 4,26214500787812E-02 
530	 4,22510135372943E-02 
531	 4,17461191054374E-02 
532	 4,08487046003292E-02 
533	 4,00039943829603E-02 
534	 4,06600756113545E-02 
535	 4,16971577202471E-02 
536	 4,23084590989131E-02 
537	 4,18094590196029E-02 
538	 4,08839001056014E-02 
539	 4,09164733114592E-02 
540	 4,11317759183187E-02 
541	 4,13139097241732E-02 
542	 4,16660759433851E-02 
543	 4,15808376238526E-02 
544	 4,05474982308614E-02 
545	 4,04310752891418E-02 
546	 4,11404742997951E-02 
547	 4,12524380142891E-02 
548	 4,14915084344958E-02 
549	 0,042069765820382 
550	 4,20894197510562E-02 
551	 4,18650062638077E-02 
552	 4,20335912489474E-02 
553	 4,21906730216706E-02 
554	 4,21853925515058E-02 
555	 4,18402432420568E-02 
556	 4,16235590899771E-02 
557	 4,18706241403189E-02 
558	 4,16865397578996E-02 
559	 4,10791909559797E-02 
560	 4,03870266543491E-02 
561	 4,00729894496788E-02 
562	 4,03396231433862E-02 
563	 4,10489523584539E-02 
564	 4,12756399217374E-02 
565	 3,98454748855236E-02 
566	 4,00349886843284E-02 
567	 4,17967923562532E-02 
568	 4,18052251002759E-02 
569	 4,14934255470294E-02 
570	 4,18037364357795E-02 
571	 4,16061808020162E-02 
572	 0,041151583678602 
573	 4,12465241171334E-02 
574	 4,17851056576115E-02 
575	 4,26843484157948E-02 
576	 4,37318319776287E-02 
577	 4,42554811076112E-02 
578	 4,35873692282275E-02 
579	 0,043554975241447 
580	 4,43648077465609E-02 
581	 4,52676456349993E-02 
582	 4,57289752272346E-02 
583	 4,54927410160859E-02 
584	 4,52737352953878E-02 
585	 4,55971379035296E-02 
586	 0,047293040167287 
587	 0,047797438851629 
588	 4,68078245857381E-02 
589	 4,68705198425952E-02 
590	 4,74408489247136E-02 
591	 4,78824069796377E-02 
592	 0,047890551542309 
593	 4,78306856573122E-02 
594	 4,90215970880501E-02 
595	 4,97526358722151E-02 
596	 4,93242537423181E-02 
597	 4,89769392545709E-02 
598	 4,87999201386125E-02 
599	 0,048704901929686 
600	 4,87086177288367E-02 
601	 0,048700443064153 
602	 4,82851284508072E-02 
603	 4,78028598024667E-02 
604	 4,75713084319436E-02 
605	 4,80305569128851E-02 
606	 4,85744680351302E-02 
607	 4,75558081936302E-02 
608	 4,65168326398546E-02 
609	 4,60709295379185E-02 
610	 4,59597572902636E-02 
611	 4,60517063071293E-02 
612	 4,62022618882322E-02 
613	 4,57902114835094E-02 
614	 0,045048697347446 
615	 4,53157193289169E-02 
616	 4,56174537080111E-02 
617	 4,53229722760286E-02 
618	 4,46223256036918E-02 
619	 4,42641105491727E-02 
620	 4,58055666164142E-02 
621	 4,62160179139036E-02 
622	 4,49511346421975E-02 
623	 4,47236582106994E-02 
624	 4,49800254599724E-02 
625	 4,49869773268903E-02 
626	 4,48734972490426E-02 
627	 4,48366137767779E-02 
628	 4,54758741165603E-02 
629	 4,59192499621115E-02 
630	 4,57332690612416E-02 
631	 0,045343032739071 
632	 4,51573186224179E-02 
633	 4,57388768317515E-02 
634	 4,61894222652006E-02 
635	 4,63496526515749E-02 
636	 4,67903999497811E-02 
637	 4,72575765879173E-02 
638	 4,75455608202565E-02 
639	 0,04802341858621 
640	 0,04869188307167 
641	 0,049511455302256 
642	 0,049674077801848 
643	 4,91127655760973E-02 
644	 4,96592111108145E-02 
645	 5,05800582884158E-02 
646	 5,07119673964336E-02 
647	 5,03652046463752E-02 
648	 4,98261694869977E-02 
649	 4,97779731070977E-02 
650	 5,00247107217508E-02 
651	 5,03263771711811E-02 
652	 4,97957250139183E-02 
653	 4,88812697067196E-02 
654	 4,88134505166917E-02 
655	 4,84466987218591E-02 
656	 4,75407368683285E-02 
657	 4,68487885187683E-02 
658	 4,62268183870615E-02 
659	 4,54891507478207E-02 
660	 4,48910558424527E-02 
661	 4,44368284512488E-02 
662	 4,40203568558867E-02 
663	 4,34220702610772E-02 
664	 4,26112291749632E-02 
665	 4,22702735905523E-02 
666	 4,21011045736488E-02 
667	 0,041488243768701 
668	 4,13904664930286E-02 
669	 4,18192096770608E-02 
670	 0,041770039385654 
671	 4,14600857233943E-02 
672	 4,11092370045264E-02 
673	 4,09313842250223E-02 
674	 4,09275974549355E-02 
675	 4,10330627451872E-02 
676	 4,08576643064601E-02 
677	 4,04193111234089E-02 
678	 4,07256514652049E-02 
679	 4,13067533712952E-02 
680	 4,15120425972902E-02 
681	 4,15294958149403E-02 
682	 4,15554154156763E-02 
683	 4,21412149092823E-02 
684	 4,25296287197676E-02 
685	 4,23627968168698E-02 
686	 4,25509742550612E-02 
687	 0,043300231549049 
688	 4,47818410532115E-02 
689	 4,59035208428302E-02 
690	 4,65587211347872E-02 
691	 4,78305783526134E-02 
692	 4,98926327384816E-02 
693	 0,052835308442083 
694	 5,62138560615088E-02 
695	 5,99828739630536E-02 
696	 6,41721063883605E-02 
697	 6,94263026883944E-02 
698	 0,075919269118555 
699	 8,27365916084058E-02 
700	 9,01190921747134E-02 
701	 9,84974845126214E-02 
702	 0,107237982694659 
703	 0,116302538290621 
704	 0,126221170984039 
705	 0,136517536020355 
706	 0,146846475090187 
707	 0,157215077385947 
708	 0,167571451167957 
709	 0,177818537876489 
710	 0,187954024738932 
711	 0,197904602973216 
712	 0,20738250870161 
713	 0,216447539399635 
714	 0,225171002184354 
715	 0,233615327656763 
716	 0,241711719743278 
717	 0,249246311746055 
718	 0,256514883948767 
719	 0,263589489961853 
720	 0,270086953309957 
721	 0,276112971092042 
722	 0,281868559087502 
723	 0,287018670168492 
724	 0,291614974976509 
725	 0,29604899391853 
726	 0,300235534640271 
727	 0,304116894096925 
728	 0,307612561934176 
729	 0,3108461652904 
730	 0,314085395921507 
731	 0,316751384140128 
732	 0,31891254400616 
733	 0,321649214926129 
734	 0,324338821864166 
735	 0,326397844294825 
736	 0,327920466913228 
737	 0,329384864478552 
738	 0,332028596959577 
739	 0,334099933039029 
740	 0,335023607050669 
741	 0,335697739053653 
742	 0,336631171356296 
743	 0,338294124156149 
744	 0,339616841918834 
745	 0,340531382627646 
746	 0,34174167788428 
747	 0,342550448066287 
748	 0,342762437892617 
749	 0,343771431367952 
750	 0,345035274033746 
751	 0,345457769577473 
752	 0,346188066443849 
753	 0,347370254527382 
754	 0,348345283277125 
755	 0,349118455896891 
756	 0,349716070374669 
757	 0,350331943106443 
758	 0,350998527672828 
759	 0,351701774958628 
760	 0,352392147432893 
761	 0,353027647987654 
762	 0,353494141346864 
763	 0,354056289237396 
764	 0,354943961404348 
765	 0,355732445353482 
766	 0,356317682879205 
767	 0,356632795255072 
768	 0,357102253579176 
769	 0,357816733244138 
770	 0,358192937878594 
771	 0,358354888133813 
772	 0,358513900724535 
773	 0,358957308141957 
774	 0,359601062717379 
775	 0,359985662197321 
776	 0,360221128231712 
777	 0,360373849710229 
778	 0,360545826452887 
779	 0,360714210158304 
780	 0,360818294316373 
781	 0,361057229769239 
782	 0,361383504319139 
783	 0,361383241673226 
784	 0,361583957488724 
785	 0,36227917765731 
786	 0,362823766490208 
787	 0,363191120463128 
788	 0,363510999533804 
789	 0,363847882346471 
790	 0,364188996807711 
791	 0,364379589457281 
792	 0,364445490876477 
793	 0,364474184988653 
794	 0,365126294298344 
795	 0,36604314961028 
796	 0,366238681780335 
797	 0,366358718270742 
798	 0,366610411587923 
799	 0,366926731076383 
800	 0,367219429817981 
801	 0,367419821852254 
802	 0,36773522786958 
803	 0,368163960275421 
804	 0,368630873592464 
805	 0,36891331250085 
806	 0,369040624218731 
807	 0,369730199659019 
808	 0,370352276478891 
809	 0,370225007035627 
810	 0,370425424939168 
811	 0,370960377465228 
812	 0,371151513790315 
813	 0,371574968848953 
814	 0,372324246509407 
815	 0,37245583192216 
816	 0,372538385899767 
817	 0,373315740644126 
818	 0,373944737526075 
819	 0,374284429456807 
820	 0,374492345032576 
821	 0,374805764666455 
822	 0,375329755019892 
823	 0,375801482026034 
824	 0,37634621037458 
825	 0,377149408004939 
826	 0,377668387123247 
827	 0,377869678197564 
828	 0,378041855213716 
829	 0,378500678217697 
830	 0,379328084112199 
831	 0,379770232935753 
832	 0,380090567676297 
833	 0,380759996530212 
834	 0,381168613269455 
835	 0,381395770905151 
836	 0,382236013781961 
837	 0,382865037400532 
838	 0,382930095995988 
839	 0,383365123846003 
840	 0,384024518373036 
841	 0,384555590451057 
842	 0,384639800123441 
843	 0,384413691461337 
844	 0,384558765255829 
845	 0,385079406861455 
846	 0,385833830471418 
847	 0,385830340679713 
848	 0,385440680801318 
849	 0,385348766021435 
850	 0,385973459900519 
851	 0,386946553386948 
852	 0,386714583597907 
853	 0,386192403571523 
854	 0,385974227044798 
855	 0,38640261518776 
856	 0,387010439586514 
857	 0,387105848251561 
858	 0,387736320198932 
859	 0,388646343575149 
860	 0,388201957797864 
861	 0,387844979017534 
862	 0,388274631646881 
863	 0,388671291301718 
864	 0,389050436133545 
865	 0,389537824929835 
866	 0,390392722570121 
867	 0,391450974263164 
868	 0,392148057790906 
869	 0,392243815310862 
870	 0,391884420662928 
871	 0,392718102396914 
872	 0,393913744316185 
873	 0,394305949087632 
874	 0,39484577203621 
875	 0,395632768038171 
876	 0,396418380713165 
877	 0,396916947544895 
878	 0,39716421243015 
879	 0,398166683546154 
880	 0,399291157938866 
881	 0,399763463632866 
882	 0,399610027766643 
883	 0,399262160296655 
884	 0,399798204465308 
885	 0,400436301619619 
886	 0,40090529181542 
887	 0,401346019130985 
888	 0,401788377375411 
889	 0,402215026233478 
890	 0,402041866924217 
891	 0,401592946457376 
892	 0,401743206763123 
893	 0,402225485177891 
894	 0,402986368960321 
895	 0,404238470902183 
896	 0,404958856267792 
897	 0,404433686775569 
898	 0,403925610262393 
899	 0,403662527919391 
900	 0,403651456180163 
901	 0,403459602883563 
902	 0,403219074860866 
903	 0,403969188287523 
904	 0,404532744337122 
905	 0,404265424608652 
906	 0,404345276481453 
907	 0,404476098018616 
908	 0,404046991582097 
909	 0,404371213942574 
910	 0,405377610744901 
911	 0,405890308811614 
912	 0,405910760898562 
913	 0,40546921324937 
914	 0,404753572560026 
915	 0,404798096168709 
916	 0,406536817795294 
917	 0,406650034047345 
918	 0,405633869927232 
919	 0,406595880389959 
920	 0,407273890058551 
921	 0,407057666036273 
922	 0,406792571862396 
923	 0,406990299966532 
924	 0,407978297609903 
925	 0,408993415189489 
926	 0,409388270573036 
927	 0,408280612409943 
928	 0,407675689052567 
929	 0,408029402380917 
930	 0,408631915868531 
931	 0,40883011150327 
932	 0,408376012085131 
933	 0,408567364262267 
934	 0,408963908097757 
935	 0,408829742046868 
936	 0,408895713740838 
937	 0,408871712988606 
938	 0,407303185966078 
939	 0,406939534929529 
940	 0,408265129564502 
941	 0,407889970327265 
942	 0,406644894750664 
943	 0,405564687490904 
944	 0,405643387547653 
945	 0,406090861210601 
946	 0,405125036239431 
947	 0,4038245172945 
948	 0,402727195815736 
949	 0,402762247943911 
950	 0,401742441034005 
951	 0,398890762961509 
952	 0,39796220017208 
953	 0,397628432265592 
954	 0,395918615618916 
955	 0,395922701712974 
956	 0,396671976569328 
957	 0,394095404281357 
958	 0,391435594341818 
959	 0,389976082357761 
960	 0,389745182417189 
961	 0,39044974481072 
962	 0,391595903421761 
963	 0,391560263555524 
964	 0,390577295263238 
965	 0,389418887822067 
966	 0,388964268857732 
967	 0,389192750059663 
968	 0,389175490487755 
969	 0,388928117692765 
970	 0,388635613263248 
971	 0,389502674404822 
972	 0,389955881163089 
973	 0,388660165064411 
974	 0,387720953886171 
975	 0,387678353364509 
976	 0,388761092052069 
977	 0,390030932574602 
978	 0,390747120445682 
979	 0,389350703455137 
980	 0,389233438654242 
981	 0,391693256120883 
982	 0,393593634584016 
983	 0,394045289629719 
984	 0,392733817856595 
985	 0,39323332828776 
986	 0,395407065593305 
987	 0,397640662991754 
988	 0,398131100093292 
989	 0,397053996197771 
990	 0,397302134497904 
991	 0,39780182844193 
992	 0,398098122192072 
993	 0,398669834711092 
994	 0,400052649759673 
995	 0,40254212365928 
996	 0,403363746249964 
997	 0,402876985535321 
998	 0,402854485886533 
999	 0,402901682528132 
1000	 0,403366048934825 
1001	 0,405699997972098 
1002	 0,407068206307406 
1003	 0,406636549731779 
1004	 0,408762854990899 
1005	 0,410588511072215 
1006	 0,409351375093965 
1007	 0,409578835101934 
1008	 0,4114688257241 
1009	 0,413989751918015 
1010	 0,413511215572596 
1011	 0,410844265001302 
1012	 0,41188308478893 
1013	 0,41447830270215 
1014	 0,417357108969064 
1015	 0,419426964419721 
1016	 0,420124463443109 
1017	 0,419164039948533 
1018	 0,417771690372735 
1019	 0,416588840264031 
1020	 0,416175152291983 
1021	 0,414653982538637 
1022	 0,413880035236646 
1023	 0,420287057419045 
1024	 0,42498185749686 
1025	 0,425236319188782 
1026	 0,424454573438605 
1027	 0,423994344920266 
1028	 0,424652848723019 
1029	 0,42464679139418 
1030	 0,425684991455404 
1031	 0,429518912797646 
1032	 0,429797642083359 
1033	 0,42819832883964 
1034	 0,430656993778456 
1035	 0,431930687228024 
1036	 0,431490049564597 
1037	 0,433025895755664 
1038	 0,433058583962632 
1039	 0,43019754012932 
1040	 0,425486781187656 
1041	 0,423336153391234 
1042	 0,426378241650675 
1043	 0,424456330045733 
1044	 0,421644693487838 
1045	 0,42526375932446 
1046	 0,431284006361515 
1047	 0,437112015006042 
1048	 0,43840864166749 
1049	 0,439555589916053 
1050	 0,440698393633351 
1051	 0,436340233846503 
1052	 0,432967705020189 
1053	 0,433877463063125 
1054	 0,437920104062135 
1055	 0,439629745468477 
1056	 0,435582248042079 
1057	 0,437957785919532 
1058	 0,43945877838571 
1059	 0,428366750755949 
1060	 0,430491606782048 
1061	 0,440321276839641 
1062	 0,43316087716368 
1063	 0,425839811594361 
1064	 0,425589341343008 
1065	 0,440234187219996 
1066	 0,447562032281971 
1067	 0,437747426168239 
1068	 0,415276138490534 
1069	 0,413618882380534 
1070	 0,450145197969853 
1071	 0,454073030271771 
1072	 0,44600469803168 
1073	 0,456455377424223 
1074	 0,45304900880729 
1075	 0,437584088459147 
