Wavelength	SCORFF200890.asd
325	 3,66803726010142E-03 
326	 0,163362813866016 
327	 0,162761720007205 
328	 2,32082742296705E-02 
329	 0,199155144934109 
330	 0,313981138405703 
331	 0,111696633872366 
332	 3,87431844364946E-02 
333	 9,48414185783052E-02 
334	 9,30654728699468E-02 
335	 0,133783165294361 
336	 0,185416485962934 
337	 0,114949251868935 
338	-8,41010601471666E-03 
339	-6,00915718914798E-02 
340	-3,17258071395061E-02 
341	 1,24904585686364E-02 
342	-4,52212756004458E-02 
343	-1,02686831816645E-02 
344	 0,108740866769278 
345	 7,46264080668605E-02 
346	 9,72412358889555E-03 
347	 0,037255447341397 
348	 6,75872500415512E-02 
349	 8,57919301069088E-02 
350	 0,101195882812791 
351	 0,120344804242356 
352	 0,130549524974745 
353	 7,27397026676883E-02 
354	 1,02362017913162E-02 
355	 2,03921322682053E-02 
356	 7,35139592324597E-02 
357	 0,121887501527893 
358	 9,06410966376567E-02 
359	 4,76113402855227E-02 
360	 2,09909473053107E-02 
361	 2,74579459555538E-03 
362	 9,84385689955506E-03 
363	 0,062220461747397 
364	 8,09175852136525E-02 
365	 6,43992890007146E-02 
366	 6,70405599139183E-02 
367	 6,92745307940139E-02 
368	 5,79963512446411E-02 
369	 2,41522019869233E-02 
370	-7,61922970595302E-03 
371	 1,60711901216652E-02 
372	 9,46654764919849E-03 
373	-2,88464953473872E-02 
374	 3,7124151091415E-03 
375	 3,58137362832811E-02 
376	 2,04784728977684E-02 
377	 4,02704417862408E-02 
378	 0,071323645172865 
379	 3,84445937276933E-02 
380	 1,64305827802291E-02 
381	 2,61662165582886E-02 
382	 0,037400579487622 
383	 4,24324602537851E-02 
384	 3,75327309356688E-02 
385	 0,035334525421985 
386	 3,67160305036319E-02 
387	 3,66105013290404E-02 
388	 4,02381329697563E-02 
389	 4,43467372416789E-02 
390	 1,89329028098272E-02 
391	-8,6044312033034E-04 
392	 3,02163403457959E-02 
393	 3,17051267148026E-02 
394	 8,29340668998409E-03 
395	 2,99269808280705E-02 
396	 4,41513562663696E-02 
397	 0,029007004196195 
398	 2,01120828596641E-02 
399	 1,95142343410291E-02 
400	 2,35676164366246E-02 
401	 0,022676832104843 
402	 1,70742487839636E-02 
403	 1,66724573552258E-02 
404	 2,43529471361028E-02 
405	 3,87692185613597E-02 
406	 3,24817394854349E-02 
407	 0,015814962924261 
408	 1,64813691891099E-02 
409	 2,21519100272089E-02 
410	 2,76343162382219E-02 
411	 2,73913911662812E-02 
412	 2,30721256894281E-02 
413	 1,70092801404327E-02 
414	 1,89312083107435E-02 
415	 2,59062225127041E-02 
416	 2,67250783407279E-02 
417	 2,56721843663191E-02 
418	 2,40738486709337E-02 
419	 1,89378851000331E-02 
420	 1,55491398186072E-02 
421	 2,07135925245698E-02 
422	 2,53498702104227E-02 
423	 2,74655552925912E-02 
424	 2,94106114785629E-02 
425	 2,76350704820515E-02 
426	 2,10049349556823E-02 
427	 1,87447127795502E-02 
428	 1,96119269501503E-02 
429	 1,88435949892667E-02 
430	 1,88337426030729E-02 
431	 0,019901193855199 
432	 2,11219866520297E-02 
433	 2,15017766912112E-02 
434	 2,03825131660078E-02 
435	 2,08349225443023E-02 
436	 2,23467552583002E-02 
437	 2,21969418868231E-02 
438	 2,23720871194031E-02 
439	 2,27103526963137E-02 
440	 0,017081217409832 
441	 0,012256119608867 
442	 0,017134987491143 
443	 1,83998465988987E-02 
444	 1,56130108619009E-02 
445	 1,90195024206049E-02 
446	 2,11479088463737E-02 
447	 1,81388842912669E-02 
448	 1,89438778664632E-02 
449	 2,17147374698509E-02 
450	 2,07719625339031E-02 
451	 1,95245507079038E-02 
452	 1,91933843733823E-02 
453	 2,07445546658284E-02 
454	 2,14388534125193E-02 
455	 1,88322767623268E-02 
456	 1,53434074811678E-02 
457	 1,29393248280454E-02 
458	 1,52469363043838E-02 
459	 1,76160929961906E-02 
460	 1,81413863643208E-02 
461	 1,90936717768168E-02 
462	 1,95237761818301E-02 
463	 1,79710603305132E-02 
464	 1,62596756234356E-02 
465	 1,53056019317236E-02 
466	 1,60213621854494E-02 
467	 1,82380019773535E-02 
468	 2,13119192208493E-02 
469	 2,15511176554362E-02 
470	 1,97014666849418E-02 
471	 1,81394298327335E-02 
472	 1,75774906651907E-02 
473	 1,83516658839654E-02 
474	 2,03062703530613E-02 
475	 2,12697467126903E-02 
476	 1,92744467097345E-02 
477	 1,70942098925122E-02 
478	 1,59071820324377E-02 
479	 1,73998363348529E-02 
480	 1,75178473878211E-02 
481	 1,49142350251328E-02 
482	 1,46499956814845E-02 
483	 1,61371373516915E-02 
484	 1,77409094910881E-02 
485	 1,84497220710884E-02 
486	 1,81631427890739E-02 
487	 1,80482094876673E-02 
488	 1,79405905503934E-02 
489	 1,76771025371814E-02 
490	 1,68697457625117E-02 
491	 1,59585902630725E-02 
492	 1,60303968543332E-02 
493	 1,64600230506862E-02 
494	 1,66811226141549E-02 
495	 1,48165866162262E-02 
496	 1,34281488384309E-02 
497	 0,015443436769223 
498	 0,016633422465954 
499	 1,64607080715715E-02 
500	 1,65866681853665E-02 
501	 1,62724158571815E-02 
502	 0,015338269278098 
503	 1,56322918869349E-02 
504	 1,64013123556254E-02 
505	 0,015849811512022 
506	 1,62635419618866E-02 
507	 1,75041038332487E-02 
508	 1,60301436256092E-02 
509	 1,41608388313023E-02 
510	 1,40944775786036E-02 
511	 1,46872675644941E-02 
512	 0,015397729778876 
513	 1,53887069069827E-02 
514	 1,55172009998254E-02 
515	 1,60944219447059E-02 
516	 1,65776028055501E-02 
517	 1,70067073878887E-02 
518	 1,75553857251485E-02 
519	 1,68997791306514E-02 
520	 1,55413097481949E-02 
521	 1,66356950243409E-02 
522	 1,72518383966504E-02 
523	 1,55451199618926E-02 
524	 1,59845632144715E-02 
525	 0,017824855865998 
526	 1,80727950278852E-02 
527	 1,68473892175138E-02 
528	 1,48400394925713E-02 
529	 1,57472288297656E-02 
530	 1,76437017685932E-02 
531	 1,80248387545018E-02 
532	 1,64643678305534E-02 
533	 1,42455257326406E-02 
534	 1,56655763589072E-02 
535	 1,73429534889189E-02 
536	 1,72765015234768E-02 
537	 1,66396568995574E-02 
538	 1,59610112180173E-02 
539	 1,59024505434263E-02 
540	 1,58840517903013E-02 
541	 1,57714052166189E-02 
542	 1,57985031238446E-02 
543	 1,58714038723061E-02 
544	 1,59038299852107E-02 
545	 1,62645580601854E-02 
546	 0,016800127371048 
547	 1,69930507281314E-02 
548	 1,66782356369202E-02 
549	 1,59713874137794E-02 
550	 1,62948460321942E-02 
551	 1,70492460058794E-02 
552	 1,70630030441429E-02 
553	 1,70246431218366E-02 
554	 1,70110557013164E-02 
555	 0,01658308714826 
556	 0,016187953038381 
557	 1,61987070727042E-02 
558	 1,64010608674429E-02 
559	 1,65238122578572E-02 
560	 1,59623759177718E-02 
561	 1,55987053493968E-02 
562	 1,57097749569493E-02 
563	 1,55517799679067E-02 
564	 1,52658824859346E-02 
565	 0,015117278326311 
566	 1,54818934985545E-02 
567	 1,62210515839163E-02 
568	 1,65510308179695E-02 
569	 1,66404386448695E-02 
570	 1,65828941919894E-02 
571	 1,60673675599126E-02 
572	 1,54991556193149E-02 
573	 0,015794938708405 
574	 1,62028372436465E-02 
575	 1,65415437404417E-02 
576	 1,74520838120747E-02 
577	 0,018015866027784 
578	 1,72159263983849E-02 
579	 1,68404340817737E-02 
580	 0,017061055755801 
581	 1,69883588435788E-02 
582	 1,68265603016305E-02 
583	 0,016734365643306 
584	 1,70510092049832E-02 
585	 1,76326911572464E-02 
586	 1,82337915373216E-02 
587	 1,79758274557965E-02 
588	 1,70091345397402E-02 
589	 1,72172533374053E-02 
590	 1,80432699346135E-02 
591	 1,88337758751057E-02 
592	 1,89784260037595E-02 
593	 1,85131761489307E-02 
594	 1,78648442978841E-02 
595	 1,75573788938968E-02 
596	 1,78023421327557E-02 
597	 1,78930574922314E-02 
598	 1,79573918766822E-02 
599	 1,83234237743096E-02 
600	 1,84359536481186E-02 
601	 0,018108273452705 
602	 1,71694645186221E-02 
603	 1,67155144268374E-02 
604	 1,75344990286158E-02 
605	 1,83299520126546E-02 
606	 1,86146343725113E-02 
607	 1,77600524996895E-02 
608	 1,72247667135884E-02 
609	 1,74224217695638E-02 
610	 1,69829213619443E-02 
611	 1,64279469788273E-02 
612	 1,65245210034769E-02 
613	 1,66822956403195E-02 
614	 1,68098513527825E-02 
615	 1,71521816091888E-02 
616	 1,73400839635781E-02 
617	 1,71314871820161E-02 
618	 1,65270425729664E-02 
619	 1,61842702561476E-02 
620	 1,74809857094563E-02 
621	 1,79687037444029E-02 
622	 1,70894706020749E-02 
623	 0,016443141980573 
624	 1,62772285514865E-02 
625	 1,67177565207562E-02 
626	 0,017095020874995 
627	 1,72698723233809E-02 
628	 1,73885293338025E-02 
629	 1,73918209408067E-02 
630	 1,72503620047378E-02 
631	 1,68582392984042E-02 
632	 1,66994851161184E-02 
633	 1,75849523253444E-02 
634	 1,79373942871776E-02 
635	 1,75896259518078E-02 
636	 1,79701672240559E-02 
637	 1,84401790204219E-02 
638	 0,018463290521249 
639	 1,88430296726857E-02 
640	 1,93913931424376E-02 
641	 1,93002449679474E-02 
642	 1,90460426037173E-02 
643	 1,88894734157655E-02 
644	 1,91455311731879E-02 
645	 1,95188833307748E-02 
646	 1,95899734985597E-02 
647	 1,95309253396092E-02 
648	 1,94160155689501E-02 
649	 1,92844727811696E-02 
650	 1,95112317228103E-02 
651	 2,02069974271501E-02 
652	 1,99370637082667E-02 
653	 1,92116202524375E-02 
654	 1,95445465252913E-02 
655	 1,96364009439067E-02 
656	 1,92146432429316E-02 
657	 1,91923314623518E-02 
658	 1,89962936656111E-02 
659	 1,80339152566181E-02 
660	 1,77102673429761E-02 
661	 1,79969941628669E-02 
662	 1,79321018750907E-02 
663	 1,76315163761672E-02 
664	 1,72115592575086E-02 
665	 1,72224552506597E-02 
666	 1,73959563465591E-02 
667	 1,71842260984062E-02 
668	 1,75161502706604E-02 
669	 1,82733999847674E-02 
670	 1,80157363155191E-02 
671	 0,017375702386439 
672	 1,69801256758156E-02 
673	 1,77284313058729E-02 
674	 1,88472816499844E-02 
675	 0,018034220255133 
676	 1,75086746922804E-02 
677	 0,017994493559238 
678	 1,85876401427117E-02 
679	 1,90429928250425E-02 
680	 1,91649378448525E-02 
681	 1,91800274074756E-02 
682	 1,91434843447496E-02 
683	 1,89808221011913E-02 
684	 1,90000080545159E-02 
685	 1,93439467762188E-02 
686	 1,94886020299242E-02 
687	 1,96864896529599E-02 
688	 2,05671022554934E-02 
689	 2,08681312854718E-02 
690	 2,05367577478828E-02 
691	 2,11404356806128E-02 
692	 2,19750481363572E-02 
693	 2,24082677671716E-02 
694	 2,34550867903544E-02 
695	 2,51267687954453E-02 
696	 2,68673978872386E-02 
697	 2,92738447333141E-02 
698	 3,24367644054709E-02 
699	 3,53251524854724E-02 
700	 3,84227058073355E-02 
701	 4,24650918008573E-02 
702	 4,70902793147422E-02 
703	 5,21089410870519E-02 
704	 5,73084010422637E-02 
705	 6,25014790131429E-02 
706	 6,75999115259095E-02 
707	 7,29362927210317E-02 
708	 7,87233402740763E-02 
709	 8,53303074444736E-02 
710	 9,11710708249874E-02 
711	 9,60081255930335E-02 
712	 0,101282810653011 
713	 0,106834040585066 
714	 0,112411095458831 
715	 0,117450363637131 
716	 0,122067926638593 
717	 0,126959885890201 
718	 0,131491092720721 
719	 0,135431142541106 
720	 0,139063980026236 
721	 0,142646697438503 
722	 0,146472051200653 
723	 0,149784947283719 
724	 0,152501858330379 
725	 0,15500009019499 
726	 0,157411187399752 
727	 0,159821108117059 
728	 0,162121384886255 
729	 0,164225133336054 
730	 0,166003364365722 
731	 0,167800005603414 
732	 0,16956109778843 
733	 0,170568974993441 
734	 0,171467255786849 
735	 0,172798574890879 
736	 0,173706017098373 
737	 0,174492302535789 
738	 0,176431400195066 
739	 0,177613126556013 
740	 0,177557481418268 
741	 0,178083906039031 
742	 0,178819278446865 
743	 0,179170426401664 
744	 0,179894204370141 
745	 0,180828534536055 
746	 0,18096011980576 
747	 0,18110737736235 
748	 0,181669867796091 
749	 0,182133200396495 
750	 0,182466308076753 
751	 0,182716950588932 
752	 0,182923850160456 
753	 0,183168754008907 
754	 0,183678786550455 
755	 0,184188362270178 
756	 0,184485964944874 
757	 0,184538969945893 
758	 0,184550978492636 
759	 0,184926505897216 
760	 0,185380356429892 
761	 0,185805560686876 
762	 0,186185766826767 
763	 0,186512434396977 
764	 0,186787780850986 
765	 0,187165701160616 
766	 0,187510226190715 
767	 0,187350231026451 
768	 0,187366346282947 
769	 0,187763368272311 
770	 0,187972873910936 
771	 0,188059492325272 
772	 0,188161251759933 
773	 0,188580082508029 
774	 0,189162424603312 
775	 0,189234558980966 
776	 0,189252700451401 
777	 0,189401999425922 
778	 0,189202900378133 
779	 0,188982450011581 
780	 0,18928761315672 
781	 0,189268510568019 
782	 0,18891814551073 
783	 0,188987845622611 
784	 0,189417090469566 
785	 0,190089799730289 
786	 0,190481690663413 
787	 0,190472656461189 
788	 0,189991850450807 
789	 0,189708878721399 
790	 0,1898841704858 
791	 0,19057451596991 
792	 0,191061933870172 
793	 0,19081168456207 
794	 0,190602009873777 
795	 0,190532080196763 
796	 0,190490772247449 
797	 0,190575397554542 
798	 0,190806998902951 
799	 0,191149371127729 
800	 0,19141572621919 
801	 0,191457050574977 
802	 0,191660149397258 
803	 0,19200905677572 
804	 0,192273004611091 
805	 0,192532502669141 
806	 0,1927646845762 
807	 0,192700533663408 
808	 0,192774520572358 
809	 0,193423002352483 
810	 0,193600363243711 
811	 0,193414673088594 
812	 0,193835955514629 
813	 0,194082223206743 
814	 0,193909117461703 
815	 0,193904460176333 
816	 0,194074672211012 
817	 0,194359231375941 
818	 0,194650014448011 
819	 0,194841442740765 
820	 0,194704074732492 
821	 0,194699016633162 
822	 0,195015527274402 
823	 0,195284088552109 
824	 0,195427174985737 
825	 0,195403594992738 
826	 0,195720205576481 
827	 0,196234345747615 
828	 0,196042753740818 
829	 0,196069007921524 
830	 0,196673338865167 
831	 0,196809665414987 
832	 0,196689082130605 
833	 0,196751515968628 
834	 0,197433342891058 
835	 0,198400540095472 
836	 0,198229369256808 
837	 0,197855379635913 
838	 0,197846269095566 
839	 0,198295028925569 
840	 0,198763529777805 
841	 0,198626779779232 
842	 0,198497382826165 
843	 0,198522491653495 
844	 0,198585725654334 
845	 0,198933340314986 
846	 0,199520956080569 
847	 0,199096277381159 
848	 0,198381988093155 
849	 0,198574287280547 
850	 0,199102363285148 
851	 0,199522928514185 
852	 0,198852082932205 
853	 0,19828061526219 
854	 0,198442416911186 
855	 0,198819396419832 
856	 0,198991587382773 
857	 0,198486034542922 
858	 0,198497418808086 
859	 0,198905759324914 
860	 0,198292815543427 
861	 0,19777438540013 
862	 0,197913765892191 
863	 0,198221616021767 
864	 0,198689517424654 
865	 0,199356593434083 
866	 0,199567002257473 
867	 0,199549265726971 
868	 0,200663143455159 
869	 0,200963306458157 
870	 0,199864101491583 
871	 0,199870697690152 
872	 0,200587362634872 
873	 0,201230535875072 
874	 0,201730953009623 
875	 0,202007768888325 
876	 0,20198833993195 
877	 0,201915770170833 
878	 0,202003898075336 
879	 0,20270965344047 
880	 0,203393122933804 
881	 0,203347804761737 
882	 0,20300934134084 
883	 0,202859131977898 
884	 0,20398429496866 
885	 0,204554585860934 
886	 0,204241087555335 
887	 0,205245470907802 
888	 0,206043458185924 
889	 0,205231455789863 
890	 0,205000461348479 
891	 0,205522996805826 
892	 0,206332131474277 
893	 0,206534773612569 
894	 0,20610973203196 
895	 0,206666583165367 
896	 0,20684324231363 
897	 0,205715987113672 
898	 0,205442062390941 
899	 0,205834465622097 
900	 0,205942526581321 
901	 0,206079966926229 
902	 0,20615456996054 
903	 0,205547269435336 
904	 0,205375274543878 
905	 0,206118096984422 
906	 0,205798120865978 
907	 0,205023958803069 
908	 0,204998948904576 
909	 0,204600328647361 
910	 0,204085648396512 
911	 0,205086421893555 
912	 0,206056920746548 
913	 0,206167319757621 
914	 0,205314174205933 
915	 0,204677761631761 
916	 0,205467002127453 
917	 0,205270737391766 
918	 0,204489468054254 
919	 0,20544815747861 
920	 0,206166722782018 
921	 0,205987176568861 
922	 0,205330909029327 
923	 0,204648504650102 
924	 0,20440942893683 
925	 0,205530682144571 
926	 0,206562316369209 
927	 0,204658411307541 
928	 0,204049640705256 
929	 0,205224160386124 
930	 0,205252134704679 
931	 0,204718680654648 
932	 0,204075506603919 
933	 0,2039633827803 
934	 0,204113386008052 
935	 0,204080132696362 
936	 0,204617234708904 
937	 0,205171665873396 
938	 0,203776674487827 
939	 0,202424864929635 
940	 0,201926995494937 
941	 0,202033527793316 
942	 0,201796861023827 
943	 0,20050421124906 
944	 0,199721381640919 
945	 0,199445054477992 
946	 0,199114382822527 
947	 0,199805990528923 
948	 0,200649072024426 
949	 0,197445665165888 
950	 0,194712046676667 
951	 0,194802021553851 
952	 0,194367043216859 
953	 0,193247151552359 
954	 0,191710162499157 
955	 0,190962491655993 
956	 0,190788049679562 
957	 0,18991089324933 
958	 0,188786801508585 
959	 0,187769116087494 
960	 0,18770542823801 
961	 0,188018322591338 
962	 0,188088130760967 
963	 0,186939419455909 
964	 0,185455240390926 
965	 0,185157511571102 
966	 0,184557343506697 
967	 0,183815067081402 
968	 0,184490680793602 
969	 0,185535113436641 
970	 0,186206270542819 
971	 0,185534345045417 
972	 0,18390609459586 
973	 0,181997163398735 
974	 0,182172607528702 
975	 0,183794502827377 
976	 0,184994285964183 
977	 0,184334383786185 
978	 0,182616729456851 
979	 0,184307033089125 
980	 0,185551441364612 
981	 0,185055965335147 
982	 0,187550381047178 
983	 0,189012834829284 
984	 0,185586087241821 
985	 0,184683344146339 
986	 0,186895709567712 
987	 0,190676580790189 
988	 0,191151255684376 
989	 0,188511749781062 
990	 0,18944019042019 
991	 0,190394490798591 
992	 0,18986682136086 
993	 0,190523705920216 
994	 0,191340955135128 
995	 0,191051209574719 
996	 0,189847480167342 
997	 0,188386817286942 
998	 0,187674100133899 
999	 0,190505479810557 
1000	 0,195603477101138 
1001	 0,195877709784048 
1002	 0,1937824203176 
1003	 0,191479713663617 
1004	 0,193506102639623 
1005	 0,196474175800831 
1006	 0,196777034187509 
1007	 0,196636324171579 
1008	 0,197521863803071 
1009	 0,20143506748054 
1010	 0,200730085135552 
1011	 0,195785301421078 
1012	 0,194578360106423 
1013	 0,195545430560212 
1014	 0,198186624927226 
1015	 0,203457883738766 
1016	 0,205369312998746 
1017	 0,199963305588347 
1018	 0,198983310706013 
1019	 0,20097716775808 
1020	 0,201129953722419 
1021	 0,20342365740621 
1022	 0,206928514746245 
1023	 0,207109480023301 
1024	 0,206138533646341 
1025	 0,205269196893913 
1026	 0,20644776153585 
1027	 0,208457818334311 
1028	 0,21011259815126 
1029	 0,20918656836532 
1030	 0,209980947176545 
1031	 0,216774158853797 
1032	 0,214606401597059 
1033	 0,207944807826502 
1034	 0,211472981726838 
1035	 0,217775075280118 
1036	 0,22174094470736 
1037	 0,212141497769809 
1038	 0,209158515617405 
1039	 0,218107066379299 
1040	 0,214100215354833 
1041	 0,207699619826474 
1042	 0,208530334437345 
1043	 0,210537897693142 
1044	 0,212326484034661 
1045	 0,213061411386542 
1046	 0,216806635543461 
1047	 0,222254893849611 
1048	 0,224036451783443 
1049	 0,223241038983011 
1050	 0,221067911299023 
1051	 0,220863869599758 
1052	 0,22234741871044 
1053	 0,224070973415276 
1054	 0,218509461015296 
1055	 0,215813647864343 
1056	 0,223078377023646 
1057	 0,221912787634697 
1058	 0,213330737758813 
1059	 0,203703534976776 
1060	 0,211507114705664 
1061	 0,227534270143305 
1062	 0,22234502368896 
1063	 0,218966830241185 
1064	 0,222417739498611 
1065	 0,224822512202217 
1066	 0,229814861954203 
1067	 0,23321999141172 
1068	 0,204559018090393 
1069	 0,189201677471604 
1070	 0,217888929738879 
1071	 0,224589889804126 
1072	 0,221197110592528 
1073	 0,228623198594391 
1074	 0,232403708024751 
1075	 0,231276019791686 
