Wavelength	SCORFF200281.asd
325	 4,66502768026167E-02 
326	 0,176864135407136 
327	 0,261411449982727 
328	 0,26618307837358 
329	 0,269659077656693 
330	 0,226025669596393 
331	 0,100227424076796 
332	 8,57863143018391E-02 
333	 0,155542874469886 
334	 0,204828182528171 
335	 0,224681955324888 
336	 0,205398704715645 
337	 0,20733016180725 
338	 0,151198103131018 
339	-2,31987419785247E-02 
340	-2,68762172843718E-02 
341	 6,31325361633963E-02 
342	 1,76613838954718E-02 
343	 6,17018799265481E-02 
344	 0,186016920132218 
345	 0,134557821584302 
346	 5,10649939335437E-02 
347	 0,080907151687954 
348	 0,092654641583212 
349	 8,28987239912634E-02 
350	 0,10377936194766 
351	 0,10575110007898 
352	 7,92178180666704E-02 
353	 9,28717869182734E-02 
354	 9,97285397551118E-02 
355	 3,98129493018917E-02 
356	 2,87226195924759E-02 
357	 6,51134300549765E-02 
358	 6,26732932585537E-02 
359	 7,03185408953153E-02 
360	 9,95397942775592E-02 
361	 6,74105225218108E-02 
362	 2,41802244617721E-02 
363	 5,65646220009054E-02 
364	 7,39688265815653E-02 
365	 6,93556800634034E-02 
366	 9,04799307770658E-02 
367	 9,19257652695179E-02 
368	 5,30859615700742E-02 
369	 3,58535940534659E-02 
370	 3,84940330244131E-02 
371	 4,40357865404917E-02 
372	 0,036940847954854 
373	 2,13200358318272E-02 
374	 3,79994975038432E-02 
375	 5,42206586943772E-02 
376	 4,77464687668319E-02 
377	 4,54372137782358E-02 
378	 4,52790163762366E-02 
379	 0,033104027536874 
380	 2,14625274070258E-02 
381	 1,90252513314658E-02 
382	 4,59271761631081E-02 
383	 0,064845790045297 
384	 4,56644200670734E-02 
385	 3,53562824534704E-02 
386	 3,81018732771283E-02 
387	 4,01955153550497E-02 
388	 4,22412450511349E-02 
389	 4,25496085103742E-02 
390	 3,37663791069774E-02 
391	 2,66655450344776E-02 
392	 3,50845335399779E-02 
393	 3,61564176975271E-02 
394	 3,17522363419861E-02 
395	 0,044778675206066 
396	 4,84203764902533E-02 
397	 3,27085993825661E-02 
398	 0,024811240927177 
399	 2,68033217174664E-02 
400	 3,71331306868379E-02 
401	 0,032568927022235 
402	 1,56568620454974E-02 
403	 1,79151096700253E-02 
404	 2,75482723542181E-02 
405	 3,47668507526289E-02 
406	 3,36670750975922E-02 
407	 2,89061379006667E-02 
408	 3,11466524941014E-02 
409	 3,72897406375398E-02 
410	 0,042788293290066 
411	 3,24131288151613E-02 
412	 1,95882000465444E-02 
413	 1,71712772575793E-02 
414	 2,13779174548882E-02 
415	 2,80129979675798E-02 
416	 2,99996897396916E-02 
417	 2,79196266186892E-02 
418	 2,30527788426317E-02 
419	 2,14598451247712E-02 
420	 2,18278130759414E-02 
421	 0,021679737921602 
422	 2,60367700506379E-02 
423	 3,20718928694236E-02 
424	 0,028204864961315 
425	 2,22198822977098E-02 
426	 1,94372155963662E-02 
427	 2,32562984288297E-02 
428	 2,87345192632062E-02 
429	 2,63903829878034E-02 
430	 0,02468967378708 
431	 2,54875357640544E-02 
432	 2,53570601143375E-02 
433	 2,53342977740889E-02 
434	 2,62881283235187E-02 
435	 2,53162040840277E-02 
436	 2,38613384620198E-02 
437	 2,75565984975192E-02 
438	 2,74198762790587E-02 
439	 2,13853448829998E-02 
440	 2,08255694958558E-02 
441	 2,26350178103928E-02 
442	 2,16192055636041E-02 
443	 2,10507633493415E-02 
444	 2,21301254027862E-02 
445	 2,70383370016377E-02 
446	 2,91803085488775E-02 
447	 2,50520206169182E-02 
448	 2,21357484986898E-02 
449	 2,18092569899087E-02 
450	 0,024486493306245 
451	 2,68839040144102E-02 
452	 2,78762905079455E-02 
453	 0,028663442012006 
454	 2,78429806144785E-02 
455	 2,43137895733504E-02 
456	 2,14528842494297E-02 
457	 2,09137756593723E-02 
458	 2,54374882677375E-02 
459	 2,74978248640496E-02 
460	 0,024646412462035 
461	 2,42595494804572E-02 
462	 2,53061469783744E-02 
463	 0,025469620124479 
464	 2,49820249015628E-02 
465	 2,38643717053275E-02 
466	 2,20600883183288E-02 
467	 2,09026438761748E-02 
468	 0,021281634394218 
469	 0,022394806698876 
470	 2,37207225629021E-02 
471	 2,48074410020597E-02 
472	 0,023680568002199 
473	 2,09998621653798E-02 
474	 2,31228644996173E-02 
475	 2,52420433073838E-02 
476	 2,26011151777161E-02 
477	 2,27471488386371E-02 
478	 2,48470274380384E-02 
479	 2,22206184645761E-02 
480	 1,98941741726065E-02 
481	 2,01020575500454E-02 
482	 2,07196919761982E-02 
483	 2,16269522667334E-02 
484	 2,30402336426993E-02 
485	 2,37158171200855E-02 
486	 2,33182275195302E-02 
487	 2,18032854522122E-02 
488	 2,15518176219576E-02 
489	 2,39924025098999E-02 
490	 2,40369367078362E-02 
491	 2,25421504015013E-02 
492	 2,35559066441851E-02 
493	 2,36952083044875E-02 
494	 2,23248876640161E-02 
495	 2,24822361051427E-02 
496	 2,28979148033051E-02 
497	 2,19302406084034E-02 
498	 2,15251477086967E-02 
499	 2,17521434373914E-02 
500	 2,14397176992059E-02 
501	 2,10990162483717E-02 
502	 2,10693920291334E-02 
503	 2,15739981879018E-02 
504	 2,24351057067703E-02 
505	 2,33724142300504E-02 
506	 2,38605269057654E-02 
507	 2,36019481697142E-02 
508	 0,02205343975755 
509	 2,10836439771233E-02 
510	 2,22383047493525E-02 
511	 2,24583848600696E-02 
512	 2,20028798897782E-02 
513	 2,32299378254032E-02 
514	 2,41083328720283E-02 
515	 2,37353773298867E-02 
516	 2,23181146372367E-02 
517	 2,12140464666353E-02 
518	 2,22190446122634E-02 
519	 2,31275916071969E-02 
520	 0,023451845246092 
521	 0,023928109696084 
522	 0,023664350795267 
523	 2,22382925371525E-02 
524	 2,22636662480348E-02 
525	 2,34116556798745E-02 
526	 0,024198795257603 
527	 2,38205341819135E-02 
528	 2,24164455536798E-02 
529	 0,022675547495253 
530	 2,35777818927353E-02 
531	 2,37269532043785E-02 
532	 2,30800687283378E-02 
533	 2,22545541097394E-02 
534	 2,33117267332474E-02 
535	 2,41069108949554E-02 
536	 0,023496974798099 
537	 0,02331213850724 
538	 2,34054278897865E-02 
539	 2,30217405019647E-02 
540	 0,022764550193292 
541	 2,28576563896876E-02 
542	 2,34627633003427E-02 
543	 2,38582130771919E-02 
544	 2,33941621199778E-02 
545	 2,34684734897502E-02 
546	 2,40018816526457E-02 
547	 2,39687908812164E-02 
548	 2,37366326226357E-02 
549	 2,35215813780357E-02 
550	 0,023494989131877 
551	 2,38299052619788E-02 
552	 2,47842967326183E-02 
553	 0,025292644002409 
554	 2,49780215303249E-02 
555	 2,36857263774472E-02 
556	 0,022887313474373 
557	 2,36943696444349E-02 
558	 2,40160013016605E-02 
559	 2,38289503041007E-02 
560	 2,41725879971811E-02 
561	 2,41017674766914E-02 
562	 2,34084845358798E-02 
563	 2,32522838384042E-02 
564	 2,31371763312965E-02 
565	 2,22616442677714E-02 
566	 2,25022046295794E-02 
567	 2,37872803275891E-02 
568	 2,41658304427447E-02 
569	 2,42367773321804E-02 
570	 2,43687425903761E-02 
571	 2,37791381120087E-02 
572	 0,023241215572611 
573	 2,47515306023472E-02 
574	 2,55584481230974E-02 
575	 0,024979789212168 
576	 2,51378434237811E-02 
577	 2,54344837576298E-02 
578	 2,50605982598595E-02 
579	 2,50468485704152E-02 
580	 2,55146640441709E-02 
581	 2,61706012497868E-02 
582	 2,64086596060928E-02 
583	 2,59406507478393E-02 
584	 2,55177558949286E-02 
585	 2,55256408836107E-02 
586	 2,64953441272381E-02 
587	 2,67423600946935E-02 
588	 2,61217671511644E-02 
589	 2,65805900898446E-02 
590	 2,72668076679078E-02 
591	 2,73172430366945E-02 
592	 2,71342456670879E-02 
593	 2,70251152420691E-02 
594	 2,77133234045089E-02 
595	 2,78964782922829E-02 
596	 2,71879030803648E-02 
597	 2,75028585543858E-02 
598	 2,81638094986088E-02 
599	 2,78665397161502E-02 
600	 2,74403418352621E-02 
601	 2,71734253929783E-02 
602	 2,73086758975691E-02 
603	 0,02719351857181 
604	 2,64637764050159E-02 
605	 0,027373158747758 
606	 2,88593329020928E-02 
607	 0,027372505851821 
608	 2,60237993002553E-02 
609	 0,025924901420489 
610	 2,61273341605614E-02 
611	 2,62598614914418E-02 
612	 2,59652260555836E-02 
613	 0,025669791064617 
614	 2,55679453073294E-02 
615	 2,59630435313451E-02 
616	 2,61717522926919E-02 
617	 2,57791633876498E-02 
618	 2,52446413665815E-02 
619	 2,50128136382321E-02 
620	 0,025841934783807 
621	 2,64232329296069E-02 
622	 2,63843523045562E-02 
623	 2,63589231641095E-02 
624	 2,62812149476141E-02 
625	 2,60566144817777E-02 
626	 2,58459674990076E-02 
627	 2,57071632946877E-02 
628	 2,56769149180113E-02 
629	 0,025682877512441 
630	 0,025692204228319 
631	 2,57768703794773E-02 
632	 2,58897328642208E-02 
633	 2,59325384803233E-02 
634	 2,61791018269502E-02 
635	 2,66137128906384E-02 
636	 2,68684125384374E-02 
637	 2,69237171380474E-02 
638	 2,68262256842708E-02 
639	 2,73002159905525E-02 
640	 2,80905984768608E-02 
641	 2,82609976953478E-02 
642	 2,81038809325943E-02 
643	 0,027884176934774 
644	 2,85276860061703E-02 
645	 0,02931565886408 
646	 0,02921840788138 
647	 2,88109735522877E-02 
648	 2,84088543797947E-02 
649	 2,85253446338195E-02 
650	 2,88265388625589E-02 
651	 2,90112141744393E-02 
652	 2,85681028443806E-02 
653	 2,78454914854787E-02 
654	 2,77229876577828E-02 
655	 2,74996656968429E-02 
656	 2,70063295830285E-02 
657	 2,66026147942454E-02 
658	 2,61190818981164E-02 
659	 2,53927000935798E-02 
660	 2,52850827626009E-02 
661	 2,56477950278787E-02 
662	 2,55691810122646E-02 
663	 2,51758596307633E-02 
664	 2,46100274462272E-02 
665	 2,45167410032407E-02 
666	 2,46412787252395E-02 
667	 2,44498504891193E-02 
668	 2,45199172202985E-02 
669	 2,47823219902622E-02 
670	 2,43250979456928E-02 
671	 2,39012175874322E-02 
672	 2,41118367969246E-02 
673	 2,44250795430755E-02 
674	 2,46675818267453E-02 
675	 2,47311454516809E-02 
676	 2,43886143089257E-02 
677	 2,37780067324272E-02 
678	 0,024109538778659 
679	 2,47695109916248E-02 
680	 2,49162806076779E-02 
681	 2,48480632063022E-02 
682	 2,47153558865068E-02 
683	 2,47802950464096E-02 
684	 2,49538421322207E-02 
685	 2,51792388931727E-02 
686	 2,54026649539558E-02 
687	 2,57111501339053E-02 
688	 2,62713139335701E-02 
689	 2,69145946249863E-02 
690	 2,75878513548441E-02 
691	 2,82813210296479E-02 
692	 2,91520320562875E-02 
693	 3,03618381487604E-02 
694	 3,22035044271629E-02 
695	 3,43665948437777E-02 
696	 3,58432117632481E-02 
697	 3,79082344836734E-02 
698	 4,09871742544295E-02 
699	 4,40894982917453E-02 
700	 4,73722720990077E-02 
701	 5,11611731257255E-02 
702	 5,48919601829602E-02 
703	 5,85493477382355E-02 
704	 0,062627269348031 
705	 6,68332579656253E-02 
706	 7,09244372918035E-02 
707	 7,45242834564102E-02 
708	 7,80975036212572E-02 
709	 8,26284104176294E-02 
710	 8,68035666567088E-02 
711	 9,02589117418809E-02 
712	 9,33817200114556E-02 
713	 9,65502320052963E-02 
714	 0,100054301529293 
715	 0,103065308804358 
716	 0,105624118720104 
717	 0,108319531696346 
718	 0,110713698618923 
719	 0,112671938273379 
720	 0,114430460585654 
721	 0,11631813944296 
722	 0,118714100254704 
723	 0,12047349877282 
724	 0,121508685898117 
725	 0,122513775102575 
726	 0,123645280159205 
727	 0,125006281194433 
728	 0,126525471742184 
729	 0,127739847868755 
730	 0,127813242276044 
731	 0,12844693971011 
732	 0,129864075374599 
733	 0,130560713736418 
734	 0,130906265796019 
735	 0,131289494606348 
736	 0,131803552254104 
737	 0,132537853692766 
738	 0,133737483721272 
739	 0,134439814830802 
740	 0,134384802704171 
741	 0,13448075606904 
742	 0,134816511150155 
743	 0,135394037695575 
744	 0,136023255565494 
745	 0,136571767302667 
746	 0,136890016534205 
747	 0,136888381328422 
748	 0,136639320266159 
749	 0,136960956376195 
750	 0,137564807671388 
751	 0,137845080052698 
752	 0,138304117191658 
753	 0,138932022813744 
754	 0,139239833812544 
755	 0,139387871185288 
756	 0,139509936375742 
757	 0,139624641437135 
758	 0,139835901405191 
759	 0,140332717029003 
760	 0,140847547155501 
761	 0,141224294773502 
762	 0,141246559522995 
763	 0,141251333128245 
764	 0,141562368465664 
765	 0,142008229671177 
766	 0,142431297456105 
767	 0,142502729765422 
768	 0,14266060563778 
769	 0,14300403484304 
770	 0,142987623807892 
771	 0,142940067612496 
772	 0,143289156320723 
773	 0,143715306986307 
774	 0,14401189519617 
775	 0,143768416767059 
776	 0,143674752962658 
777	 0,144021992086875 
778	 0,14404083427108 
779	 0,143971459909725 
780	 0,144286487730188 
781	 0,144593629260296 
782	 0,144774929741386 
783	 0,144802257360237 
784	 0,144858140787352 
785	 0,145048131652921 
786	 0,145143869151062 
787	 0,145204080244995 
788	 0,145389876962942 
789	 0,145570046541909 
790	 0,145716520203103 
791	 0,145890228590007 
792	 0,146050761382471 
793	 0,146169660810366 
794	 0,146293088594589 
795	 0,146483197122919 
796	 0,146894393803402 
797	 0,146999949240537 
798	 0,146737644113956 
799	 0,146729608413376 
800	 0,146918464477249 
801	 0,147204429209085 
802	 0,147420368943034 
803	 0,147508161092289 
804	 0,147378302150557 
805	 0,147522168376592 
806	 0,148008239295818 
807	 0,148048500225983 
808	 0,148079660735875 
809	 0,148592007270587 
810	 0,14870318715472 
811	 0,148531253303056 
812	 0,148929931048423 
813	 0,1492863991723 
814	 0,149378875326538 
815	 0,149520920554825 
816	 0,149688130547862 
817	 0,149820366481601 
818	 0,149863175133236 
819	 0,149864720509947 
820	 0,149993483763063 
821	 0,150167803445225 
822	 0,150357856896837 
823	 0,150637876388283 
824	 0,150878433550794 
825	 0,150914587961211 
826	 0,151127697429649 
827	 0,151418178794381 
828	 0,151164563920797 
829	 0,150904333600601 
830	 0,150963360634808 
831	 0,151461729087937 
832	 0,151936461002269 
833	 0,151756413641017 
834	 0,152085370180571 
835	 0,152795414411623 
836	 0,152486626554343 
837	 0,152181899708403 
838	 0,152430534636037 
839	 0,15285041159133 
840	 0,153232045500445 
841	 0,153347188569032 
842	 0,153239740641516 
843	 0,15308685329393 
844	 0,153406533903552 
845	 0,153744260971651 
846	 0,15384219789262 
847	 0,153869468692105 
848	 0,15374918524187 
849	 0,153355935596717 
850	 0,153395543677732 
851	 0,153790998037885 
852	 0,153668707471846 
853	 0,153454194425263 
854	 0,153377650485733 
855	 0,153292352130717 
856	 0,153431481231786 
857	 0,154111401466491 
858	 0,154005995553103 
859	 0,153279126887926 
860	 0,153615615958744 
861	 0,153751442776355 
862	 0,153175962608347 
863	 0,153015812036266 
864	 0,153329797702277 
865	 0,15401696314049 
866	 0,154522793009362 
867	 0,154755124927501 
868	 0,154968768175458 
869	 0,155086394014846 
870	 0,155048204776458 
871	 0,154602296354607 
872	 0,154368975914621 
873	 0,155072043915852 
874	 0,155753480640211 
875	 0,156191339433277 
876	 0,15645275521803 
877	 0,156632068545117 
878	 0,156803115063758 
879	 0,157030504182193 
880	 0,157411813525253 
881	 0,157999321942881 
882	 0,157970989056688 
883	 0,15756310089929 
884	 0,157845013105923 
885	 0,158083378282943 
886	 0,158150359973884 
887	 0,158785441812505 
888	 0,159245927074525 
889	 0,158883936829449 
890	 0,159051000352871 
891	 0,159494088200444 
892	 0,159090994687135 
893	 0,158846200560438 
894	 0,159051550328161 
895	 0,159517289999279 
896	 0,159625354733318 
897	 0,158972660002384 
898	 0,158508002211185 
899	 0,158365954552711 
900	 0,158462022685542 
901	 0,158986862620166 
902	 0,159686576477621 
903	 0,159599873546345 
904	 0,159073414928936 
905	 0,15846021616838 
906	 0,158552539771664 
907	 0,158813995422832 
908	 0,158345941400668 
909	 0,158135838246205 
910	 0,158377154035484 
911	 0,158918074173981 
912	 0,159323238996347 
913	 0,159324816325528 
914	 0,158743001913947 
915	 0,158557095977935 
916	 0,159750566248602 
917	 0,16016446786631 
918	 0,159784382632634 
919	 0,15978870512014 
920	 0,159503688210516 
921	 0,15903534055051 
922	 0,159805609351977 
923	 0,160591459665981 
924	 0,160401710767909 
925	 0,160596864608521 
926	 0,160963948447298 
927	 0,160755281383006 
928	 0,160386030819955 
929	 0,160098201053297 
930	 0,160319754208588 
931	 0,160425580308495 
932	 0,160186848949051 
933	 0,160841474243063 
934	 0,161443452561755 
935	 0,160700471804386 
936	 0,161602101660734 
937	 0,163209346657069 
938	 0,160871020787585 
939	 0,159358736875625 
940	 0,160076555566535 
941	 0,159842204449016 
942	 0,159701236850136 
943	 0,160575722864026 
944	 0,16073662915854 
945	 0,160146805327828 
946	 0,159261831619804 
947	 0,159049339243236 
948	 0,159319887665018 
949	 0,158148132031802 
950	 0,156979697874822 
951	 0,156721124987648 
952	 0,157354529671908 
953	 0,157753642174967 
954	 0,156672024345459 
955	 0,156489443414077 
956	 0,157024991255353 
957	 0,156645048829769 
958	 0,154907636920811 
959	 0,152504668759301 
960	 0,153199787216125 
961	 0,154774833518416 
962	 0,155358982936863 
963	 0,15548989665456 
964	 0,154860836141776 
965	 0,152993720600878 
966	 0,153043818441568 
967	 0,154761325081544 
968	 0,154896119406935 
969	 0,153640507515811 
970	 0,151931728776813 
971	 0,15476251545897 
972	 0,156651898823589 
973	 0,152947353895001 
974	 0,151860322583579 
975	 0,153644258448439 
976	 0,156203759798584 
977	 0,156753194917907 
978	 0,155101668444008 
979	 0,153749826866079 
980	 0,153792616500532 
981	 0,155527595822972 
982	 0,157024212369803 
983	 0,156984439967238 
984	 0,15470937120975 
985	 0,155389364199739 
986	 0,158330077877561 
987	 0,16027804515819 
988	 0,160159848655603 
989	 0,15858919079164 
990	 0,159508131472184 
991	 0,159548502897528 
992	 0,157524197208841 
993	 0,157232792212449 
994	 0,159023633749438 
995	 0,162397597362724 
996	 0,160952708160321 
997	 0,157479644281623 
998	 0,159768162289148 
999	 0,161719977915234 
1000	 0,162129991527565 
1001	 0,163173637660265 
1002	 0,163389069349644 
1003	 0,162264182144817 
1004	 0,161058945683799 
1005	 0,160650784731415 
1006	 0,161699062219211 
1007	 0,163057652902043 
1008	 0,164494872502797 
1009	 0,166093072744582 
1010	 0,164677855862915 
1011	 0,161394781630148 
1012	 0,162567257785158 
1013	 0,165004234682483 
1014	 0,16693623046427 
1015	 0,167318410116305 
1016	 0,166805022283146 
1017	 0,166168460386259 
1018	 0,166400303719907 
1019	 0,166445324895101 
1020	 0,164574479168639 
1021	 0,164681396407698 
1022	 0,166993309405418 
1023	 0,169772845175301 
1024	 0,169808677749219 
1025	 0,167421920500534 
1026	 0,170382417462874 
1027	 0,171107388748519 
1028	 0,166064911569947 
1029	 0,168152307817237 
1030	 0,172762079395732 
1031	 0,173036351830196 
1032	 0,171540476617153 
1033	 0,170422166996529 
1034	 0,173015410174668 
1035	 0,176838561512588 
1036	 0,178623825778552 
1037	 0,169146869303024 
1038	 0,165682613106245 
1039	 0,172853061199266 
1040	 0,168958761056612 
1041	 0,165879612750859 
1042	 0,172936580282059 
1043	 0,174578576785519 
1044	 0,174766204006955 
1045	 0,181119548100209 
1046	 0,178678919715591 
1047	 0,173191618642539 
1048	 0,186600974309927 
1049	 0,187124281265695 
1050	 0,172717786842663 
1051	 0,1742671031898 
1052	 0,181784065400751 
1053	 0,188486806373367 
1054	 0,185770619856225 
1055	 0,185346855923839 
1056	 0,194680398321618 
1057	 0,183436546596896 
1058	 0,169855849572912 
1059	 0,184755163518539 
1060	 0,188423899144498 
1061	 0,177228101289831 
1062	 0,1619298252761 
1063	 0,163900912589814 
1064	 0,181264332608275 
1065	 0,180088700859508 
1066	 0,174605110759733 
1067	 0,170575133378935 
1068	 0,160513200996386 
1069	 0,164428250401928 
1070	 0,191069481333707 
1071	 0,190185048661374 
1072	 0,180042650617367 
1073	 0,186084144922736 
1074	 0,176047454133325 
1075	 0,160001019897925 
