Wavelength	SCORFF200044.asd
325	 0,266414019417337 
326	 0,317290586560943 
327	 0,210595471147685 
328	 0,014518974045352 
329	 0,242952846202687 
330	 0,419368031287423 
331	 0,221702036764798 
332	 0,116509405361032 
333	 0,137947517151051 
334	 0,142349101863215 
335	 0,15639621945638 
336	 0,170819238442189 
337	 0,185426577685677 
338	 0,155035545870613 
339	 3,77505718279433E-02 
340	 1,4092065793776E-03 
341	 3,15498105820156E-02 
342	 4,33424700254839E-02 
343	 8,79796085274961E-02 
344	 0,148557607390933 
345	 0,162767986918605 
346	 0,154507249165098 
347	 0,143997216443711 
348	 0,135495107782211 
349	 0,128195884584435 
350	 0,112479991065778 
351	 0,103160555116778 
352	 0,104661849256916 
353	 9,57776712955568E-02 
354	 7,18677031187698E-02 
355	 2,77369687752334E-02 
356	 3,84942714381357E-02 
357	 8,70791734947064E-02 
358	 8,79353161703839E-02 
359	 7,40918768834615E-02 
360	 5,70392716648265E-02 
361	 2,00080725990807E-02 
362	 2,13859762340303E-03 
363	 5,81954504300589E-02 
364	 6,90097909863583E-02 
365	 3,79324986740986E-02 
366	 7,44715950756354E-02 
367	 9,20171237861447E-02 
368	 4,52428519995038E-02 
369	 1,19327252575171E-02 
370	 1,57603598529378E-04 
371	 8,53142659904411E-03 
372	 1,11348408108321E-02 
373	 8,88741781962542E-03 
374	 4,31593097349404E-02 
375	 0,069139742480032 
376	 5,86464915650963E-02 
377	 5,76156855173171E-02 
378	 6,27995373370771E-02 
379	 5,12141968930214E-02 
380	 3,65990497359655E-02 
381	 2,97377469100102E-02 
382	 0,062600952695069 
383	 8,01231721097754E-02 
384	 3,79199542276405E-02 
385	 2,52669200561848E-02 
386	 4,07420528725786E-02 
387	 3,31952423323775E-02 
388	 3,79156841797521E-02 
389	 5,79664518731512E-02 
390	 3,70703375620526E-02 
391	 1,43553166941088E-02 
392	 0,042012938613227 
393	 3,78793091685409E-02 
394	 8,64150230254334E-03 
395	 3,06124814002753E-02 
396	 4,64727793912892E-02 
397	 3,18749182571832E-02 
398	 2,42878052976293E-02 
399	 2,54364273366684E-02 
400	 3,11973165292765E-02 
401	 0,031475998085931 
402	 2,58823253748225E-02 
403	 2,29450983139748E-02 
404	 2,82787563008183E-02 
405	 0,042178511293598 
406	 3,26715812170952E-02 
407	 1,29674305330072E-02 
408	 1,77505617223463E-02 
409	 0,029491056282306 
410	 3,97556976591701E-02 
411	 3,80067725008489E-02 
412	 2,83644650515742E-02 
413	 1,60181080794706E-02 
414	 1,69844463402277E-02 
415	 2,68372631781287E-02 
416	 2,77032670410474E-02 
417	 2,57463193709609E-02 
418	 2,34917455941246E-02 
419	 2,12957071035785E-02 
420	 0,020070572622664 
421	 2,07462574905509E-02 
422	 0,025734578890004 
423	 3,17002525406956E-02 
424	 2,71383413943737E-02 
425	 2,18686790426194E-02 
426	 2,16811389271239E-02 
427	 2,24956946291334E-02 
428	 2,35388627307955E-02 
429	 2,43975801524818E-02 
430	 2,55386110385802E-02 
431	 2,69913427853269E-02 
432	 2,89897503678785E-02 
433	 2,87873492188932E-02 
434	 2,44695757167432E-02 
435	 2,44255369088135E-02 
436	 2,73271576679101E-02 
437	 2,57937244323119E-02 
438	 2,45537890151906E-02 
439	 2,52256440719667E-02 
440	 2,60792457768941E-02 
441	 2,56696634151868E-02 
442	 2,24406598925473E-02 
443	 2,09926987178172E-02 
444	 2,25897927184039E-02 
445	 2,79422327453391E-02 
446	 3,02254951768335E-02 
447	 0,025654351282281 
448	 2,07224660945427E-02 
449	 1,85505780747758E-02 
450	 2,31251165424762E-02 
451	 2,54025729576252E-02 
452	 2,35593833624811E-02 
453	 2,40614445405001E-02 
454	 2,48792932276326E-02 
455	 2,39342771179883E-02 
456	 2,23137666988216E-02 
457	 2,09681340742572E-02 
458	 0,021576410974591 
459	 0,023331526650286 
460	 2,52993186562168E-02 
461	 2,41108212305984E-02 
462	 2,26919837421033E-02 
463	 2,53256559997289E-02 
464	 2,46852788874624E-02 
465	 2,12391031474042E-02 
466	 2,33146742246782E-02 
467	 2,53105858656102E-02 
468	 2,37376256739185E-02 
469	 2,32376938581662E-02 
470	 2,34148473957997E-02 
471	 0,022088976494196 
472	 2,12334423832572E-02 
473	 2,18306076008113E-02 
474	 0,025494212557989 
475	 2,80174426930317E-02 
476	 2,54367124364422E-02 
477	 2,28739555185064E-02 
478	 2,17849410125535E-02 
479	 2,29913825000716E-02 
480	 0,023884270247393 
481	 2,34155126111787E-02 
482	 2,38280230745103E-02 
483	 2,52067501277795E-02 
484	 2,74402984056724E-02 
485	 2,74269814163105E-02 
486	 2,51220233820452E-02 
487	 2,35127057023068E-02 
488	 2,35690391362746E-02 
489	 2,56457039872356E-02 
490	 2,55969476616244E-02 
491	 2,40198645917348E-02 
492	 2,39229602485065E-02 
493	 2,37522694785124E-02 
494	 2,31418417669837E-02 
495	 2,25956274835956E-02 
496	 2,27066416235814E-02 
497	 2,40519746957808E-02 
498	 2,45204972986188E-02 
499	 2,42243656576553E-02 
500	 2,53055430671597E-02 
501	 2,55851506278579E-02 
502	 2,42516000132366E-02 
503	 2,53821750851177E-02 
504	 2,72388078984223E-02 
505	 0,025820793867013 
506	 2,55044481110116E-02 
507	 2,67174127879639E-02 
508	 2,52259756987843E-02 
509	 2,41089602777286E-02 
510	 2,60894585379991E-02 
511	 2,71512647882675E-02 
512	 2,67910595968509E-02 
513	 2,55537190818727E-02 
514	 2,53873365383387E-02 
515	 0,026847337659281 
516	 2,71459699990704E-02 
517	 2,68763486883619E-02 
518	 2,72701462333802E-02 
519	 0,027548629751167 
520	 2,74961743635135E-02 
521	 2,69476817488097E-02 
522	 2,66728897481362E-02 
523	 2,71880518943598E-02 
524	 2,76993504852388E-02 
525	 2,81096587314822E-02 
526	 2,86239263881976E-02 
527	 2,86326440527768E-02 
528	 2,81248538110085E-02 
529	 2,82194199662298E-02 
530	 2,86273156941169E-02 
531	 0,028912155688987 
532	 2,81928454803799E-02 
533	 2,68734886169519E-02 
534	 0,026707965423703 
535	 2,72811993392757E-02 
536	 2,81906221478026E-02 
537	 2,82798577080338E-02 
538	 2,77602451115665E-02 
539	 2,72492961695582E-02 
540	 2,74686849602911E-02 
541	 2,84834020498637E-02 
542	 2,94302332508318E-02 
543	 2,96420841664364E-02 
544	 0,028625249628799 
545	 2,87076949919788E-02 
546	 2,96777356405967E-02 
547	 2,95594789900463E-02 
548	 2,90490149321424E-02 
549	 2,86109350367569E-02 
550	 2,91681475036626E-02 
551	 2,98858497571954E-02 
552	 2,92835711715441E-02 
553	 2,92981670313601E-02 
554	 3,01147610405214E-02 
555	 3,02593672438544E-02 
556	 2,98367265968525E-02 
557	 2,90333057257837E-02 
558	 0,028559439637021 
559	 2,86688244260956E-02 
560	 2,97424709239956E-02 
561	 3,01977131253837E-02 
562	 2,95257980129042E-02 
563	 2,91906238026234E-02 
564	 2,91921480983317E-02 
565	 2,93346736548807E-02 
566	 2,96599733446728E-02 
567	 3,00129670704658E-02 
568	 2,98510507011166E-02 
569	 0,029905023070446 
570	 3,05893380830559E-02 
571	 0,030578985382011 
572	 3,02498700211526E-02 
573	 3,08744505039158E-02 
574	 3,14532603306245E-02 
575	 3,17533159673636E-02 
576	 3,25436458716184E-02 
577	 3,31177199046789E-02 
578	 3,26735424665942E-02 
579	 3,26848991015078E-02 
580	 3,33407446604967E-02 
581	 3,42067982977147E-02 
582	 3,44115281099163E-02 
583	 0,033594998407204 
584	 3,32228466051498E-02 
585	 3,36112157401458E-02 
586	 3,50319269435213E-02 
587	 3,53440131099248E-02 
588	 3,44311519479537E-02 
589	 3,50721357613482E-02 
590	 3,62395891372558E-02 
591	 3,68271486721882E-02 
592	 3,66118101294957E-02 
593	 3,59208953770755E-02 
594	 3,57527553224794E-02 
595	 3,57846886325921E-02 
596	 3,59152422640233E-02 
597	 3,63398163425788E-02 
598	 3,67675822147253E-02 
599	 3,67588565925434E-02 
600	 3,67201143327028E-02 
601	 3,67473882610483E-02 
602	 3,67507354735896E-02 
603	 0,036676077573936 
604	 0,036501430378655 
605	 3,65603229110903E-02 
606	 3,65500725803536E-02 
607	 3,54765693677586E-02 
608	 3,49343392651612E-02 
609	 3,53914021511118E-02 
610	 3,56472217518872E-02 
611	 3,55727335923494E-02 
612	 0,035153426953719 
613	 0,034646349200458 
614	 3,42849721722347E-02 
615	 0,034501196272411 
616	 3,49091396103481E-02 
617	 0,03516703392634 
618	 3,45964603706514E-02 
619	 3,39631872395858E-02 
620	 3,50614709627084E-02 
621	 3,53787596309842E-02 
622	 3,45039915263665E-02 
623	 3,47573303488668E-02 
624	 3,53602321283667E-02 
625	 3,53856053541319E-02 
626	 3,53021196870581E-02 
627	 0,035186652513412 
628	 3,49202005341293E-02 
629	 3,50643487827272E-02 
630	 3,57414848962898E-02 
631	 3,54917132410927E-02 
632	 3,50346328214696E-02 
633	 0,035844159510419 
634	 3,59779082354771E-02 
635	 3,54133320532075E-02 
636	 3,65265328750133E-02 
637	 3,76630808022509E-02 
638	 3,74260707533166E-02 
639	 3,72809297601044E-02 
640	 0,037538985001908 
641	 3,83930617638324E-02 
642	 3,87009244026241E-02 
643	 3,81925281571141E-02 
644	 3,83926198723753E-02 
645	 3,91067156418508E-02 
646	 3,98962936009428E-02 
647	 3,97960382419528E-02 
648	 3,89767367418224E-02 
649	 0,038968390540338 
650	 3,91678451881521E-02 
651	 3,91476511676174E-02 
652	 3,88959950393975E-02 
653	 3,85460172300805E-02 
654	 3,84414693580078E-02 
655	 3,78738444139321E-02 
656	 3,68863090769089E-02 
657	 3,69379782070004E-02 
658	 3,69496514751926E-02 
659	 3,57727072703803E-02 
660	 3,50921521922354E-02 
661	 3,49618919890988E-02 
662	 3,44787568357027E-02 
663	 3,37713361891287E-02 
664	 3,30266050997795E-02 
665	 3,32003508884743E-02 
666	 0,033629544959063 
667	 3,31198304037736E-02 
668	 3,26942492139974E-02 
669	 3,25691482612525E-02 
670	 3,23716795772064E-02 
671	 3,23157522227454E-02 
672	 0,032531106573593 
673	 3,23681533564169E-02 
674	 3,20414967444125E-02 
675	 3,23737221818425E-02 
676	 3,25841976662359E-02 
677	 3,24405113670028E-02 
678	 3,23574335651772E-02 
679	 0,032389407117962 
680	 3,25574550653717E-02 
681	 3,28438813127428E-02 
682	 3,32321859026917E-02 
683	 3,37371189095556E-02 
684	 3,41262790662766E-02 
685	 3,42864725413092E-02 
686	 3,44621334105259E-02 
687	 3,49170019366143E-02 
688	 3,60711768470501E-02 
689	 3,69491710587794E-02 
690	 0,037466305556927 
691	 3,86409105883977E-02 
692	 4,02723150479588E-02 
693	 4,21245058869708E-02 
694	 4,39771759760569E-02 
695	 4,58984022245684E-02 
696	 4,81406665435525E-02 
697	 5,09129970255666E-02 
698	 5,41783247681195E-02 
699	 5,71001739019808E-02 
700	 5,99901842272714E-02 
701	 6,33533683312841E-02 
702	 6,69963455377092E-02 
703	 0,070774273090522 
704	 7,44489011981973E-02 
705	 7,79575866229711E-02 
706	 0,081253295769116 
707	 8,43332228484806E-02 
708	 8,73954279339304E-02 
709	 9,08121557747974E-02 
710	 9,38797221946893E-02 
711	 9,64412558229577E-02 
712	 9,88473626539036E-02 
713	 0,101332652099173 
714	 0,104063057381996 
715	 0,106443594440524 
716	 0,108412683364142 
717	 0,110128480299266 
718	 0,11180743298759 
719	 0,113504754341123 
720	 0,114828872478408 
721	 0,116001883112205 
722	 0,117350665841661 
723	 0,118599509444907 
724	 0,119701166045354 
725	 0,120742774653928 
726	 0,121627939791621 
727	 0,122324370006306 
728	 0,123079353065591 
729	 0,12382366722402 
730	 0,124356539343023 
731	 0,124977335783802 
732	 0,125703973779118 
733	 0,126205091784205 
734	 0,126629207247266 
735	 0,127102950971483 
736	 0,127329388130601 
737	 0,127582916866401 
738	 0,128782466165595 
739	 0,129395657462383 
740	 0,129020254616126 
741	 0,129003011137619 
742	 0,12936428169942 
743	 0,129980129623564 
744	 0,130353828964943 
745	 0,130485809907146 
746	 0,130864854690517 
747	 0,130936192121918 
748	 0,130560498610108 
749	 0,130954766008515 
750	 0,13166933421869 
751	 0,131791764531819 
752	 0,132004242413778 
753	 0,132383572013741 
754	 0,132544520994448 
755	 0,132612470164354 
756	 0,132691531657022 
757	 0,132774639408551 
758	 0,132994874567516 
759	 0,133638639856261 
760	 0,134107630312852 
761	 0,134233686382565 
762	 0,134308676563537 
763	 0,134414502758482 
764	 0,134621948161694 
765	 0,135039357265452 
766	 0,135473620214935 
767	 0,135372826465596 
768	 0,135313998153828 
769	 0,135488154963422 
770	 0,135513770961462 
771	 0,135550303739776 
772	 0,135814121229615 
773	 0,136162113495572 
774	 0,13653706290834 
775	 0,136980216975661 
776	 0,136944756270434 
777	 0,136297269952305 
778	 0,136248616920655 
779	 0,136545289146542 
780	 0,13660187865261 
781	 0,136647460449607 
782	 0,136732970364581 
783	 0,136842267560326 
784	 0,137108671235376 
785	 0,137568823888672 
786	 0,137791078725981 
787	 0,137806253593935 
788	 0,137777154568618 
789	 0,13787631470373 
790	 0,138120578684572 
791	 0,138331735781791 
792	 0,138303540970684 
793	 0,137977425778466 
794	 0,138567183956854 
795	 0,139503056181203 
796	 0,139115253917225 
797	 0,138865831485934 
798	 0,139168836695074 
799	 0,139560060268545 
800	 0,139666577258441 
801	 0,139226875070251 
802	 0,139376352102677 
803	 0,139899203642225 
804	 0,139634058631971 
805	 0,13957349804798 
806	 0,139957818922168 
807	 0,139993207787967 
808	 0,140075553381849 
809	 0,140639680223639 
810	 0,140637483343213 
811	 0,140246071192683 
812	 0,140574605830563 
813	 0,140913241682567 
814	 0,141001167684106 
815	 0,1411457207995 
816	 0,14132014505318 
817	 0,141462369331766 
818	 0,141448051878994 
819	 0,141366446347696 
820	 0,141572677674965 
821	 0,141744293518112 
822	 0,141757012737318 
823	 0,14187381366027 
824	 0,142026542088846 
825	 0,142098576040494 
826	 0,142365200309028 
827	 0,142759818770201 
828	 0,142874246369633 
829	 0,142951176056403 
830	 0,143104297016245 
831	 0,143251479221108 
832	 0,143203128819184 
833	 0,142722709776997 
834	 0,143173199300707 
835	 0,144277983964393 
836	 0,143957795815322 
837	 0,143736632013066 
838	 0,144267784378705 
839	 0,143927717524952 
840	 0,143350564642435 
841	 0,143656431323531 
842	 0,143650692355407 
843	 0,143311826926222 
844	 0,143555946726975 
845	 0,14394123084016 
846	 0,144192018072706 
847	 0,144238056842335 
848	 0,144146155110721 
849	 0,144029612811849 
850	 0,144155744641695 
851	 0,144409369214808 
852	 0,144168025382728 
853	 0,143902315459303 
854	 0,143859466596421 
855	 0,14377833891427 
856	 0,14385865885742 
857	 0,14439308601349 
858	 0,144583729239614 
859	 0,144330255697229 
860	 0,143965406630296 
861	 0,143861923521252 
862	 0,144149954007434 
863	 0,144146719411354 
864	 0,144081733907039 
865	 0,144342996533698 
866	 0,144755502517265 
867	 0,145114946133954 
868	 0,144976152356729 
869	 0,144643909735604 
870	 0,144385511110697 
871	 0,144779153824065 
872	 0,145338242446103 
873	 0,145431069319893 
874	 0,145873984246777 
875	 0,146467476730364 
876	 0,146149087192624 
877	 0,145741190755012 
878	 0,14573603744499 
879	 0,146769047400128 
880	 0,147577709314838 
881	 0,146832892187144 
882	 0,146291383721735 
883	 0,146238955522456 
884	 0,146393912887797 
885	 0,14668173075487 
886	 0,147065200604751 
887	 0,147672453696529 
888	 0,148171458804333 
889	 0,148226927992466 
890	 0,14766665723842 
891	 0,146868263764451 
892	 0,146634767741195 
893	 0,146793585761753 
894	 0,147259932100375 
895	 0,147969252986364 
896	 0,148126629240246 
897	 0,14721687366265 
898	 0,146408946145761 
899	 0,146186278674234 
900	 0,147023273969071 
901	 0,147629515623924 
902	 0,147596389760569 
903	 0,147053021717407 
904	 0,146684130376038 
905	 0,146874203900365 
906	 0,146901527761808 
907	 0,146994692008332 
908	 0,1475911025534 
909	 0,147270888982631 
910	 0,146412130137624 
911	 0,147384000969716 
912	 0,148104403820411 
913	 0,147632567302014 
914	 0,146567122272934 
915	 0,146353351751331 
916	 0,148322078308874 
917	 0,148457436993947 
918	 0,147181597653998 
919	 0,147800524640322 
920	 0,148024911153703 
921	 0,147418942085679 
922	 0,147699796832649 
923	 0,14783068669265 
924	 0,147057645091712 
925	 0,147398670458622 
926	 0,148317017872091 
927	 0,148299241159521 
928	 0,148011713211485 
929	 0,147763602914939 
930	 0,147984885052067 
931	 0,148443986024089 
932	 0,148866302251338 
933	 0,148456630219677 
934	 0,147925072331162 
935	 0,148274603828318 
936	 0,149053511629366 
937	 0,149668914840602 
938	 0,148729941019619 
939	 0,148164085358397 
940	 0,148567936391931 
941	 0,148688945720235 
942	 0,148791734084212 
943	 0,149124532773089 
944	 0,149243459511725 
945	 0,149062223129726 
946	 0,148558069851526 
947	 0,148292682576866 
948	 0,148199525210424 
949	 0,147297597762676 
950	 0,14661140450882 
951	 0,146673812045173 
952	 0,146720656832653 
953	 0,146702256974792 
954	 0,146640110085981 
955	 0,146129145011689 
956	 0,145388730715686 
957	 0,145163670534805 
958	 0,14504046349944 
959	 0,144803307789364 
960	 0,143829398383407 
961	 0,144359024574069 
962	 0,14740418855731 
963	 0,146570561611653 
964	 0,143832278733566 
965	 0,143541375153153 
966	 0,143673215004098 
967	 0,143884907953333 
968	 0,144487688284047 
969	 0,145065694961057 
970	 0,145335035523661 
971	 0,145063950587302 
972	 0,144366098342301 
973	 0,143522678997927 
974	 0,1441746844346 
975	 0,145475607478801 
976	 0,14545457258798 
977	 0,144643596228488 
978	 0,143643703252783 
979	 0,143844569538639 
980	 0,145022348265074 
981	 0,146899277764343 
982	 0,148975817947369 
983	 0,149057871359249 
984	 0,145508670837582 
985	 0,144367205501133 
986	 0,145961942745073 
987	 0,148615833356441 
988	 0,148791369724481 
989	 0,146768441322538 
990	 0,148188368370542 
991	 0,148492044232521 
992	 0,146108618221871 
993	 0,146672330115516 
994	 0,148721017484429 
995	 0,150055866875896 
996	 0,148730457719338 
997	 0,146520076137788 
998	 0,147615691045865 
999	 0,148520192052467 
1000	 0,149022286287714 
1001	 0,152294233129545 
1002	 0,153635004562541 
1003	 0,151228505353147 
1004	 0,149218250995645 
1005	 0,149079391209375 
1006	 0,151474439690007 
1007	 0,151226327650316 
1008	 0,149775912806348 
1009	 0,151353306826455 
1010	 0,151080088624527 
1011	 0,148759753636397 
1012	 0,147352406295771 
1013	 0,150295845645202 
1014	 0,156965807873989 
1015	 0,156356651680373 
1016	 0,152404479942853 
1017	 0,14950901395797 
1018	 0,150172509513129 
1019	 0,152111132074222 
1020	 0,151315194451234 
1021	 0,15318390154471 
1022	 0,156832487605291 
1023	 0,156412519127747 
1024	 0,156576601515781 
1025	 0,158420020996481 
1026	 0,159818568737023 
1027	 0,158746841892011 
1028	 0,154869020372489 
1029	 0,155545528919368 
1030	 0,156407940062396 
1031	 0,152088395176291 
1032	 0,152857116445908 
1033	 0,157452321406779 
1034	 0,159272915357052 
1035	 0,161614691658302 
1036	 0,163606407947347 
1037	 0,159330348928632 
1038	 0,157050651406799 
1039	 0,158657463067408 
1040	 0,15164575078902 
1041	 0,147519323792782 
1042	 0,154854065772123 
1043	 0,158081225765833 
1044	 0,156501723984647 
1045	 0,152602541835022 
1046	 0,155218147445639 
1047	 0,163687520598723 
1048	 0,171239961874355 
1049	 0,169845806333966 
1050	 0,160392967972562 
1051	 0,156982586422206 
1052	 0,160014239041382 
1053	 0,167686959756285 
1054	 0,168870541513992 
1055	 0,168338859182101 
1056	 0,170350035510256 
1057	 0,169671047155274 
1058	 0,163175077165396 
1059	 0,148987416978442 
1060	 0,155990326427803 
1061	 0,17194753246455 
1062	 0,155420962794279 
1063	 0,147421290072053 
1064	 0,155870709587699 
1065	 0,16230725529241 
1066	 0,166262816976162 
1067	 0,165048792221288 
1068	 0,146570382614682 
1069	 0,145415869827562 
1070	 0,180082972410761 
1071	 0,178363160866908 
1072	 0,163947865083693 
1073	 0,171738254215734 
1074	 0,178354809220533 
1075	 0,177223696195072 
