Wavelength	SCORFF200631.asd
325	 0,224895416205925 
326	 0,409245704991359 
327	 0,447608755348079 
328	 0,329004255463727 
329	 0,321524367330543 
330	 0,384407226277909 
331	 0,468973576086547 
332	 0,271132328042575 
333	 2,62582701969686E-02 
334	 0,18035720926773 
335	 0,323572409318942 
336	 0,279205337265447 
337	 0,211363273430856 
338	 0,12946825174768 
339	 8,62626278670818E-02 
340	 7,40855262222601E-02 
341	 9,55569452999732E-02 
342	 0,170665561906567 
343	 0,263238815622427 
344	 0,309023710053192 
345	 0,198565815770349 
346	 8,78651967789397E-02 
347	 0,139046674274208 
348	 0,203344941430087 
349	 0,243168180250604 
350	 0,250346201094442 
351	 0,260877806611757 
352	 0,279050779796835 
353	 0,260720946364597 
354	 0,221728758637632 
355	 0,180446695254745 
356	 0,190494634555956 
357	 0,231080891640131 
358	 0,215457487830042 
359	 0,204155311437642 
360	 0,217037849422551 
361	 0,199827685805557 
362	 0,1827694293353 
363	 0,217338162064282 
364	 0,222183011975973 
365	 0,201908207833747 
366	 0,239622147507432 
367	 0,256104245745119 
368	 0,211758915902139 
369	 0,192895783126405 
370	 0,197211708138805 
371	 0,200225744440161 
372	 0,198138311713093 
373	 0,194961346613734 
374	 0,21651054745111 
375	 0,235273595584017 
376	 0,232967834464618 
377	 0,224711403433798 
378	 0,216731809526573 
379	 0,215165879566533 
380	 0,211592097044886 
381	 0,205928773911484 
382	 0,212508900771817 
383	 0,218532567857816 
384	 0,212863361505778 
385	 0,206476810138924 
386	 0,208504482700141 
387	 0,240767094685111 
388	 0,251363414054367 
389	 0,226274668500858 
390	 0,211888273300188 
391	 0,212045195475915 
392	 0,227222366842594 
393	 0,220308451450271 
394	 0,199426618745121 
395	 0,216411494486683 
396	 0,229048471992636 
397	 0,22005790896967 
398	 0,223272742065086 
399	 0,229607776339504 
400	 0,220617822968425 
401	 0,210779627822391 
402	 0,207064993380629 
403	 0,218091028802289 
404	 0,2296485023995 
405	 0,231161351043365 
406	 0,22233811607936 
407	 0,211712464449914 
408	 0,216057276867682 
409	 0,223638523080557 
410	 0,228520459273502 
411	 0,222465632324517 
412	 0,214536292114695 
413	 0,213296111540786 
414	 0,214930802796552 
415	 0,217580556133945 
416	 0,218591169991623 
417	 0,220309560428606 
418	 0,222580901100169 
419	 0,219125375637515 
420	 0,21473785290121 
421	 0,216061785256299 
422	 0,217691695013622 
423	 0,218882509139594 
424	 0,221967222182023 
425	 0,223356441876045 
426	 0,221317433801424 
427	 0,220766109892614 
428	 0,220457529801637 
429	 0,216525028037486 
430	 0,215588743729339 
431	 0,218741498365976 
432	 0,221772794301408 
433	 0,223587239733574 
434	 0,223413404220088 
435	 0,221898104682549 
436	 0,22028605037798 
437	 0,221261061694135 
438	 0,221322612067315 
439	 0,219695840435506 
440	 0,22090726842886 
441	 0,222947132352341 
442	 0,222848025624103 
443	 0,221515188339833 
444	 0,220170365743869 
445	 0,222149954586523 
446	 0,223929276150768 
447	 0,223329532070059 
448	 0,221416609992113 
449	 0,220656131314797 
450	 0,225294076287268 
451	 0,22962361491405 
452	 0,231340306247621 
453	 0,229294498245287 
454	 0,22764925436547 
455	 0,229878089809337 
456	 0,226845218290491 
457	 0,221707277675867 
458	 0,228019716560314 
459	 0,231233167340926 
460	 0,226601945571265 
461	 0,225859743568811 
462	 0,227674756310586 
463	 0,228802256887574 
464	 0,228019166565062 
465	 0,225873279642168 
466	 0,22537937461656 
467	 0,226781023025807 
468	 0,229749888432862 
469	 0,230214417406574 
470	 0,229115764766891 
471	 0,229716375832095 
472	 0,228614356248511 
473	 0,22606628800718 
474	 0,228359606604563 
475	 0,230438214351653 
476	 0,227366362899462 
477	 0,227668974994538 
478	 0,230703369540792 
479	 0,229885580813374 
480	 0,228772934988711 
481	 0,228806401213548 
482	 0,227981298554888 
483	 0,227358293768876 
484	 0,228766079365465 
485	 0,229185602069816 
486	 0,228542376409128 
487	 0,229846905464028 
488	 0,231526575137582 
489	 0,232158009606402 
490	 0,230327213885417 
491	 0,227707201316166 
492	 0,228686672857099 
493	 0,228978105748435 
494	 0,227534797841259 
495	 0,227055296063908 
496	 0,227599874017898 
497	 0,228969968606143 
498	 0,229465291791927 
499	 0,229093250392021 
500	 0,229439995388474 
501	 0,228960583183506 
502	 0,227217119093288 
503	 0,227736856282793 
504	 0,229880895781548 
505	 0,23182903031647 
506	 0,233188017757111 
507	 0,233674552051452 
508	 0,233140914477314 
509	 0,232562586840264 
510	 0,232784341156318 
511	 0,232741331639262 
512	 0,232774217350665 
513	 0,234395090768047 
514	 0,23557843391912 
515	 0,235422705683346 
516	 0,234508027943584 
517	 0,233516590238058 
518	 0,233235374098415 
519	 0,233880435362928 
520	 0,235317000039715 
521	 0,237054949986591 
522	 0,23791852645916 
523	 0,237237011805203 
524	 0,237311192084257 
525	 0,237986567523184 
526	 0,238124077406401 
527	 0,237584094119716 
528	 0,236673432053819 
529	 0,237377894385543 
530	 0,238582723541017 
531	 0,238857950502151 
532	 0,238133203386644 
533	 0,236951223248652 
534	 0,237039545144928 
535	 0,237281598016951 
536	 0,237028227823157 
537	 0,236636817787248 
538	 0,236424945836294 
539	 0,236906934930077 
540	 0,237242201440353 
541	 0,237247994391767 
542	 0,237450791086635 
543	 0,237760167193944 
544	 0,238064276907627 
545	 0,23834062750914 
546	 0,238726139837189 
547	 0,239788821127967 
548	 0,240084552370101 
549	 0,239185618051515 
550	 0,239467703292733 
551	 0,240459747290846 
552	 0,241028922254135 
553	 0,241234116959194 
554	 0,241096786566899 
555	 0,240802016482727 
556	 0,240621597083238 
557	 0,24071525173639 
558	 0,240153047392811 
559	 0,239179011671499 
560	 0,238796617549079 
561	 0,238422194952728 
562	 0,237964348619546 
563	 0,238190805299715 
564	 0,238585153427389 
565	 0,238389238358138 
566	 0,238629733532345 
567	 0,239315674230791 
568	 0,239553058422046 
569	 0,23970102608447 
570	 0,240044018129116 
571	 0,240653906204639 
572	 0,241674381503619 
573	 0,243424709067285 
574	 0,245043732804816 
575	 0,246250489639868 
576	 0,247620044472659 
577	 0,248720748253913 
578	 0,249073430491425 
579	 0,250235251723323 
580	 0,252046876734148 
581	 0,25285545006665 
582	 0,253450224037006 
583	 0,25429274523809 
584	 0,255269200370159 
585	 0,25639540358496 
586	 0,257777154984787 
587	 0,258472337002802 
588	 0,258588598889539 
589	 0,260013591890406 
590	 0,261559322142969 
591	 0,262068068839358 
592	 0,262455614956481 
593	 0,262863321121521 
594	 0,26316258744829 
595	 0,263444462487599 
596	 0,263754464074971 
597	 0,26407704921182 
598	 0,264361194324654 
599	 0,264543521545621 
600	 0,264587750245547 
601	 0,264371247185907 
602	 0,263447306045536 
603	 0,262617517507613 
604	 0,262496765475403 
605	 0,262495561088636 
606	 0,262276312701531 
607	 0,261277742240105 
608	 0,260320736184306 
609	 0,259670663986109 
610	 0,258652410038944 
611	 0,258019673688002 
612	 0,258729550970375 
613	 0,258211097598925 
614	 0,256503998769701 
615	 0,255881314314904 
616	 0,2559949888579 
617	 0,256499008981057 
618	 0,256323957647136 
619	 0,255712049729044 
620	 0,255454405984351 
621	 0,255557473774005 
622	 0,255903713358853 
623	 0,255793715598099 
624	 0,255555087927698 
625	 0,255574693154737 
626	 0,25592042352451 
627	 0,256411974154634 
628	 0,256468219455354 
629	 0,256578404568563 
630	 0,256965578158741 
631	 0,25728419962135 
632	 0,257588365810178 
633	 0,258029089526999 
634	 0,25843923429822 
635	 0,258905492425541 
636	 0,259962864139191 
637	 0,261070523042011 
638	 0,261794611738704 
639	 0,262899289736624 
640	 0,264238285735988 
641	 0,265116450642535 
642	 0,26596946563237 
643	 0,266854488516883 
644	 0,26712657696394 
645	 0,267145320547864 
646	 0,267448814924588 
647	 0,267384082144118 
648	 0,266904493149967 
649	 0,266419827439063 
650	 0,265888860063009 
651	 0,265243549237823 
652	 0,264083745153671 
653	 0,262676419471262 
654	 0,26166222750509 
655	 0,26078541252665 
656	 0,259851584557547 
657	 0,258424158859375 
658	 0,256571796025213 
659	 0,254434764231593 
660	 0,252873172743329 
661	 0,251673259976774 
662	 0,249587819387238 
663	 0,247531499405615 
664	 0,24603545306538 
665	 0,245250358745475 
666	 0,244884515605853 
667	 0,244489548373805 
668	 0,243688277912005 
669	 0,242537567975723 
670	 0,241797786012589 
671	 0,241167629028487 
672	 0,240456318828613 
673	 0,240560332075103 
674	 0,241141152103824 
675	 0,241108498409728 
676	 0,240809887828103 
677	 0,240422424382357 
678	 0,240282877202481 
679	 0,240418506520187 
680	 0,240812488046511 
681	 0,241367408794157 
682	 0,242073107696938 
683	 0,24300545669883 
684	 0,244014249903071 
685	 0,2451205794874 
686	 0,247247191214517 
687	 0,249823062797544 
688	 0,251543153768648 
689	 0,254412449722453 
690	 0,258783756159041 
691	 0,263231647995397 
692	 0,268085142664694 
693	 0,273708253446414 
694	 0,280229380059029 
695	 0,287595113937573 
696	 0,295624145981046 
697	 0,304213252286353 
698	 0,313234818184924 
699	 0,322353627802523 
700	 0,331826594549642 
701	 0,342037221670751 
702	 0,352202393185363 
703	 0,362031722970943 
704	 0,371562678612947 
705	 0,380405865775823 
706	 0,388421885179292 
707	 0,39669297701734 
708	 0,40497903154766 
709	 0,412502340207121 
710	 0,419600039848248 
711	 0,426338238500932 
712	 0,432489712440129 
713	 0,438458906371147 
714	 0,444558906864426 
715	 0,449612659034117 
716	 0,453786741925976 
717	 0,458095665081109 
718	 0,462218536680265 
719	 0,466031598493528 
720	 0,469422293074833 
721	 0,472581066363087 
722	 0,475772980228035 
723	 0,478310721812589 
724	 0,480235566889495 
725	 0,482215439171044 
726	 0,484161282415941 
727	 0,486033742518736 
728	 0,487895580780391 
729	 0,489647171230864 
730	 0,491121285727101 
731	 0,492356065997742 
732	 0,493364007705538 
733	 0,494087801159856 
734	 0,49499744556412 
735	 0,496430024105596 
736	 0,49722223001808 
737	 0,497645723871061 
738	 0,498994967916026 
739	 0,499954438467479 
740	 0,500187011844083 
741	 0,500804536254664 
742	 0,501487995392813 
743	 0,501776926423122 
744	 0,502191767272964 
745	 0,502749516747936 
746	 0,50315593132351 
747	 0,503388259213691 
748	 0,503490216035196 
749	 0,503857782780448 
750	 0,504426094457501 
751	 0,505029335068162 
752	 0,505364373997455 
753	 0,505484423430796 
754	 0,505955732724379 
755	 0,506504787331386 
756	 0,506919937386748 
757	 0,507205570575703 
758	 0,507547429013105 
759	 0,508333905515836 
760	 0,509052309149528 
761	 0,509519927969172 
762	 0,509765694749392 
763	 0,51012392798861 
764	 0,510881078887191 
765	 0,511517167991179 
766	 0,511957512332934 
767	 0,512272631956038 
768	 0,512677733308207 
769	 0,513215365698557 
770	 0,513528526127582 
771	 0,51377975799805 
772	 0,514186679961784 
773	 0,514367953558999 
774	 0,51439151107775 
775	 0,514755212618558 
776	 0,514980890805031 
777	 0,514844507453409 
778	 0,514636369864667 
779	 0,51452141795097 
780	 0,514686463015365 
781	 0,514640991313627 
782	 0,514357517494436 
783	 0,514192044236545 
784	 0,514300497160711 
785	 0,514739095794147 
786	 0,515046732865957 
787	 0,515229772494566 
788	 0,515467778909182 
789	 0,515227150923992 
790	 0,514719836702798 
791	 0,515497146829 
792	 0,516185251033205 
793	 0,515776009770621 
794	 0,516133902503404 
795	 0,517067696403205 
796	 0,517550127545013 
797	 0,517704372296082 
798	 0,517666899975746 
799	 0,518027609897934 
800	 0,518488094076571 
801	 0,518741882676405 
802	 0,518940747947679 
803	 0,519158318085558 
804	 0,519510331730891 
805	 0,519887890997604 
806	 0,520259444781515 
807	 0,520737771744568 
808	 0,521059185505305 
809	 0,520965002944512 
810	 0,521060540454169 
811	 0,521429113741261 
812	 0,522003987861728 
813	 0,522103881073576 
814	 0,521566198100037 
815	 0,521371637254932 
816	 0,521542487897317 
817	 0,521975970633478 
818	 0,522183954303821 
819	 0,522156582334196 
820	 0,52223039546391 
821	 0,522508731655846 
822	 0,522995977713677 
823	 0,523302501309933 
824	 0,523512513532313 
825	 0,523789043449737 
826	 0,523993483495371 
827	 0,524187794162553 
828	 0,524655455369017 
829	 0,525102277308918 
830	 0,525413320385585 
831	 0,52599527522776 
832	 0,526467644952854 
833	 0,52627477419225 
834	 0,526537516885758 
835	 0,527253936129881 
836	 0,527414028800339 
837	 0,527677139810126 
838	 0,528356249940841 
839	 0,529084894179259 
840	 0,529492744689888 
841	 0,529146471555981 
842	 0,528762436322847 
843	 0,528544554533129 
844	 0,528359971356706 
845	 0,528576422205051 
846	 0,529252875604069 
847	 0,529338805113869 
848	 0,529158647267572 
849	 0,529343507828218 
850	 0,52946792145214 
851	 0,529351849859378 
852	 0,528745570517364 
853	 0,528120014630749 
854	 0,527795227014664 
855	 0,527920011094171 
856	 0,528183267886615 
857	 0,5281440948035 
858	 0,528067093815385 
859	 0,527988080311539 
860	 0,527836597900086 
861	 0,527599270172088 
862	 0,527377520362243 
863	 0,527855343351384 
864	 0,528388162464257 
865	 0,528080145116251 
866	 0,528523674513113 
867	 0,529643172845233 
868	 0,53014776292831 
869	 0,529996131069956 
870	 0,529396800908845 
871	 0,529848363237001 
872	 0,530742997242868 
873	 0,531182219499182 
874	 0,53189852369322 
875	 0,532730801463926 
876	 0,532753343360123 
877	 0,533126571688951 
878	 0,534158576151707 
879	 0,534533147393305 
880	 0,534807099934081 
881	 0,535645262673453 
882	 0,536138737688687 
883	 0,536226666950888 
884	 0,536114475266085 
885	 0,536670143763228 
886	 0,537910830513701 
887	 0,538051193671773 
888	 0,537939274366528 
889	 0,538411497746611 
890	 0,538360516875555 
891	 0,537994302756833 
892	 0,538195422992729 
893	 0,538143343281251 
894	 0,537830219920165 
895	 0,538444145063229 
896	 0,538895014047128 
897	 0,538375690673402 
898	 0,538021012132363 
899	 0,537935551879687 
900	 0,537983852541227 
901	 0,537822721259735 
902	 0,537461865820075 
903	 0,537429203763801 
904	 0,537143526426098 
905	 0,536398982323261 
906	 0,536534339813834 
907	 0,53686941530486 
908	 0,536230741342173 
909	 0,535488088899246 
910	 0,534991855017955 
911	 0,535133111344533 
912	 0,535218306816649 
913	 0,534999325705414 
914	 0,535096225369396 
915	 0,535711259860175 
916	 0,536901013311745 
917	 0,536662686233306 
918	 0,535713824632033 
919	 0,537054116513569 
920	 0,537619097300905 
921	 0,536783324562909 
922	 0,536878123546567 
923	 0,53743880748449 
924	 0,538007254110707 
925	 0,53896373747024 
926	 0,539716564766748 
927	 0,539181172622706 
928	 0,538518049805881 
929	 0,538273716422659 
930	 0,53909031953779 
931	 0,539544187334245 
932	 0,538945201298513 
933	 0,538833811406633 
934	 0,539204938239297 
935	 0,53981213847788 
936	 0,54067966291564 
937	 0,541215065739627 
938	 0,539656090157012 
939	 0,539345588905148 
940	 0,540963213403906 
941	 0,540627557976327 
942	 0,539992612000271 
943	 0,540576484809882 
944	 0,540290573122146 
945	 0,53966096837884 
946	 0,540305033989659 
947	 0,540086128582884 
948	 0,538785623484692 
949	 0,53789847105649 
950	 0,537363740123348 
951	 0,537066067281014 
952	 0,536269316128258 
953	 0,535561942426723 
954	 0,535684682908661 
955	 0,535244640855215 
956	 0,534438763053442 
957	 0,534760337862844 
958	 0,533446157618927 
959	 0,530646048026188 
960	 0,531518533067545 
961	 0,532868555134099 
962	 0,532171531415038 
963	 0,530970999292613 
964	 0,530045430491502 
965	 0,530231239062316 
966	 0,530151736134523 
967	 0,529816419948976 
968	 0,530627894205385 
969	 0,530124544638006 
970	 0,527936683863512 
971	 0,528074008483453 
972	 0,528832642398544 
973	 0,52859154957619 
974	 0,530031513592226 
975	 0,531508545103455 
976	 0,529427592658186 
977	 0,528067604377924 
978	 0,528412786903279 
979	 0,529351632251773 
980	 0,530309993215154 
981	 0,530959687551385 
982	 0,531489730554014 
983	 0,532315035360707 
984	 0,533752691075007 
985	 0,53443957152219 
986	 0,534749926161347 
987	 0,535984556298059 
988	 0,535930804660097 
989	 0,534777486352823 
990	 0,535354123942156 
991	 0,537000034900155 
992	 0,538871111814938 
993	 0,538149865992227 
994	 0,537223422893571 
995	 0,538604782392789 
996	 0,538636075439046 
997	 0,538238387301037 
998	 0,540502431465992 
999	 0,541150585000253 
1000	 0,540093039011411 
1001	 0,541628337709417 
1002	 0,542592672627601 
1003	 0,542039883641393 
1004	 0,54423399430359 
1005	 0,546465261711822 
1006	 0,546006266863237 
1007	 0,546451294065215 
1008	 0,5470706400862 
1009	 0,545565156521252 
1010	 0,543584880834399 
1011	 0,542308403240207 
1012	 0,54372142540124 
1013	 0,545996316459911 
1014	 0,548183530798282 
1015	 0,550893707700659 
1016	 0,551370119458452 
1017	 0,54805450463888 
1018	 0,548341717769399 
1019	 0,551046233355751 
1020	 0,55266225443036 
1021	 0,55033132642086 
1022	 0,546532903310352 
1023	 0,550384793699071 
1024	 0,551898847145159 
1025	 0,549490751416703 
1026	 0,552615392298308 
1027	 0,55508793816826 
1028	 0,553257083131061 
1029	 0,552860875688146 
1030	 0,553208844171803 
1031	 0,552858704982296 
1032	 0,552862571281244 
1033	 0,553606647044692 
1034	 0,555380908315183 
1035	 0,558547203858873 
1036	 0,561786140037885 
1037	 0,560277759951139 
1038	 0,559942571290793 
1039	 0,561598409626375 
1040	 0,55436297281215 
1041	 0,546635228172482 
1042	 0,546399784059977 
1043	 0,553835393651355 
1044	 0,56039840228983 
1045	 0,555156837329549 
1046	 0,559579106093432 
1047	 0,570273279777785 
1048	 0,567428597616765 
1049	 0,564453803945164 
1050	 0,564189689939088 
1051	 0,561824835356623 
1052	 0,562280748491735 
1053	 0,566452080519014 
1054	 0,565424304486858 
1055	 0,56232809892839 
1056	 0,560968817274125 
1057	 0,56437186889674 
1058	 0,568966988429254 
1059	 0,569025912027045 
1060	 0,574808189226023 
1061	 0,580042530436227 
1062	 0,566209318336436 
1063	 0,556919655025786 
1064	 0,558929395358335 
1065	 0,56763098429526 
1066	 0,574446967925684 
1067	 0,573793478165614 
1068	 0,561092724483706 
1069	 0,554745853429716 
1070	 0,567237569571684 
1071	 0,574695026216635 
1072	 0,572025114308682 
1073	 0,55836856209375 
1074	 0,560467821933746 
1075	 0,571284207305585 
